9.779411554336547852e-01,9.264705777168273926e-01,6.813725233078002930e-01,2.450980395078659058e-01,1.544117629528045654e-01,1.911764740943908691e-01,1.519607901573181152e-01,8.578431606292724609e-02,5.882352963089942932e-02,4.901960864663124084e-02,4.411764815449714661e-02,6.127450987696647644e-02,6.617647409439086914e-02,6.127450987696647644e-02,4.901960864663124084e-02,7.352941483259201050e-02,6.127450987696647644e-02,6.127450987696647644e-02,6.617647409439086914e-02,6.862745434045791626e-02,9.558823704719543457e-02,7.598039507865905762e-02,9.313725680112838745e-02,1.053921580314636230e-01,1.151960790157318115e-01,1.029411777853965759e-01,1.176470592617988586e-01,1.250000000000000000e-01,1.421568691730499268e-01,1.274509876966476440e-01,1.519607901573181152e-01,1.446078419685363770e-01,1.642156839370727539e-01,1.446078419685363770e-01,1.593137234449386597e-01,1.519607901573181152e-01,1.544117629528045654e-01,1.421568691730499268e-01,1.519607901573181152e-01,1.519607901573181152e-01,1.470588296651840210e-01,1.323529481887817383e-01,1.274509876966476440e-01,1.348039209842681885e-01,1.372549086809158325e-01,1.127450987696647644e-01,1.078431382775306702e-01,1.053921580314636230e-01,1.078431382775306702e-01,9.803921729326248169e-02,9.313725680112838745e-02,1.029411777853965759e-01,1.004901975393295288e-01,1.053921580314636230e-01,1.029411777853965759e-01,1.176470592617988586e-01,1.053921580314636230e-01,1.225490197539329529e-01,1.274509876966476440e-01,1.421568691730499268e-01,1.470588296651840210e-01,1.446078419685363770e-01,1.740196049213409424e-01,2.303921580314636230e-01,2.377450913190841675e-01,2.475490123033523560e-01,2.303921580314636230e-01,2.254901975393295288e-01,1.985294073820114136e-01,1.764705926179885864e-01,1.323529481887817383e-01,1.250000000000000000e-01,1.176470592617988586e-01,1.225490197539329529e-01,1.127450987696647644e-01,1.299019604921340942e-01,1.151960790157318115e-01,8.333333581686019897e-02,0.000000000000000000e+00,6.617647409439086914e-02,3.063725531101226807e-01,6.127451062202453613e-01,8.602941036224365234e-01,1.000000000000000000e+00,9.583333134651184082e-01,7.450980544090270996e-01,3.039215803146362305e-01,1.642156839370727539e-01,2.058823555707931519e-01,1.642156839370727539e-01,1.029411777853965759e-01,9.558823704719543457e-02,9.068627655506134033e-02,1.004901975393295288e-01,9.558823704719543457e-02,9.803921729326248169e-02,9.313725680112838745e-02,9.803921729326248169e-02,9.558823704719543457e-02,1.127450987696647644e-01,0.000000000000000000e+00,0.000000000000000000e+00,0.000000000000000000e+00,0.000000000000000000e+00,0.000000000000000000e+00,0.000000000000000000e+00,0.000000000000000000e+00,0.000000000000000000e+00,0.000000000000000000e+00,0.000000000000000000e+00,0.000000000000000000e+00,0.000000000000000000e+00,0.000000000000000000e+00,0.000000000000000000e+00,0.000000000000000000e+00,0.000000000000000000e+00,0.000000000000000000e+00,0.000000000000000000e+00,0.000000000000000000e+00,0.000000000000000000e+00,0.000000000000000000e+00,0.000000000000000000e+00,0.000000000000000000e+00,0.000000000000000000e+00,0.000000000000000000e+00,0.000000000000000000e+00,0.000000000000000000e+00,0.000000000000000000e+00,0.000000000000000000e+00,0.000000000000000000e+00,0.000000000000000000e+00,0.000000000000000000e+00,0.000000000000000000e+00,0.000000000000000000e+00,0.000000000000000000e+00,0.000000000000000000e+00,0.000000000000000000e+00,0.000000000000000000e+00,0.000000000000000000e+00,0.000000000000000000e+00,0.000000000000000000e+00,0.000000000000000000e+00,0.000000000000000000e+00,0.000000000000000000e+00,0.000000000000000000e+00,0.000000000000000000e+00,0.000000000000000000e+00,0.000000000000000000e+00,0.000000000000000000e+00,0.000000000000000000e+00,0.000000000000000000e+00,0.000000000000000000e+00,0.000000000000000000e+00,0.000000000000000000e+00,0.000000000000000000e+00,0.000000000000000000e+00,0.000000000000000000e+00,0.000000000000000000e+00,0.000000000000000000e+00,0.000000000000000000e+00,0.000000000000000000e+00,0.000000000000000000e+00,0.000000000000000000e+00,0.000000000000000000e+00,0.000000000000000000e+00,0.000000000000000000e+00,0.000000000000000000e+00,0.000000000000000000e+00,0.000000000000000000e+00,0.000000000000000000e+00,0.000000000000000000e+00,0.000000000000000000e+00,0.000000000000000000e+00,0.000000000000000000e+00,0.000000000000000000e+00,0.000000000000000000e+00,0.000000000000000000e+00,0.000000000000000000e+00,0.000000000000000000e+00,0.000000000000000000e+00,0.000000000000000000e+00,0.000000000000000000e+00,0.000000000000000000e+00,0.000000000000000000e+00,0.000000000000000000e+00,0.000000000000000000e+00,0.000000000000000000e+00,0.000000000000000000e+00
9.601139426231384277e-01,8.632478713989257812e-01,4.615384638309478760e-01,1.965811997652053833e-01,9.401709586381912231e-02,1.253561228513717651e-01,9.971509873867034912e-02,8.831908553838729858e-02,7.407407462596893311e-02,8.262108266353607178e-02,7.407407462596893311e-02,6.267806142568588257e-02,6.552706658840179443e-02,6.552706658840179443e-02,6.267806142568588257e-02,7.692307978868484497e-02,7.122506946325302124e-02,8.262108266353607178e-02,9.116809070110321045e-02,9.686609357595443726e-02,8.262108266353607178e-02,8.262108266353607178e-02,9.116809070110321045e-02,1.054131090641021729e-01,1.225071251392364502e-01,1.481481492519378662e-01,1.823361814022064209e-01,1.937321871519088745e-01,2.136752158403396606e-01,2.079772055149078369e-01,2.222222238779067993e-01,2.535612583160400391e-01,2.706552743911743164e-01,2.877492904663085938e-01,2.849002778530120850e-01,2.934472858905792236e-01,2.564102709293365479e-01,2.478632479906082153e-01,1.880341917276382446e-01,1.452991515398025513e-01,1.082621067762374878e-01,8.262108266353607178e-02,7.977207750082015991e-02,7.407407462596893311e-02,1.424501463770866394e-02,1.139601133763790131e-02,6.267806142568588257e-02,5.128205195069313049e-02,5.698005855083465576e-02,4.843304678797721863e-02,2.849002927541732788e-02,3.133903071284294128e-02,7.692307978868484497e-02,2.564102597534656525e-02,2.849002927541732788e-02,3.703703731298446655e-02,9.401709586381912231e-02,8.547008782625198364e-02,3.988603875041007996e-02,5.982905998826026917e-02,7.407407462596893311e-02,7.977207750082015991e-02,9.116809070110321045e-02,9.971509873867034912e-02,1.082621067762374878e-01,8.831908553838729858e-02,9.116809070110321045e-02,6.552706658840179443e-02,8.547008782625198364e-02,8.831908553838729858e-02,7.692307978868484497e-02,8.262108266353607178e-02,9.686609357595443726e-02,9.971509873867034912e-02,1.339031308889389038e-01,1.025641039013862610e-01,3.988603875041007996e-02,6.552706658840179443e-02,7.407407462596893311e-02,8.262108266353607178e-02,8.547008782625198364e-02,5.698005855083465576e-02,4.558404535055160522e-02,1.025641039013862610e-01,3.988603875041007996e-02,1.139601133763790131e-02,1.709401793777942657e-02,3.133903071284294128e-02,5.698005668818950653e-03,8.547008968889713287e-03,3.133903071284294128e-02,5.128205195069313049e-02,5.698005855083465576e-02,8.831908553838729858e-02,6.552706658840179443e-02,1.139601133763790131e-02,5.698005855083465576e-02,3.988603875041007996e-02,3.988603875041007996e-02,2.564102597534656525e-02,2.849002834409475327e-03,1.994301937520503998e-02,2.564102597534656525e-02,1.139601133763790131e-02,2.849002927541732788e-02,1.994301937520503998e-02,2.279202267527580261e-02,3.418803587555885315e-02,1.424501463770866394e-02,5.128205195069313049e-02,6.837607175111770630e-02,1.396011412143707275e-01,2.877492904663085938e-01,5.270655155181884766e-01,7.777777910232543945e-01,1.000000000000000000e+00,8.888888955116271973e-01,4.928774833679199219e-01,1.908831894397735596e-01,8.831908553838729858e-02,6.267806142568588257e-02,3.418803587555885315e-02,0.000000000000000000e+00,3.418803587555885315e-02,1.709401793777942657e-02,2.849002834409475327e-03,0.000000000000000000e+00,4.843304678797721863e-02,4.843304678797721863e-02,5.413105338811874390e-02,4.273504391312599182e-02,5.413105338811874390e-02,5.982905998826026917e-02,6.267806142568588257e-02,7.122506946325302124e-02,7.692307978868484497e-02,9.971509873867034912e-02,0.000000000000000000e+00,0.000000000000000000e+00,0.000000000000000000e+00,0.000000000000000000e+00,0.000000000000000000e+00,0.000000000000000000e+00,0.000000000000000000e+00,0.000000000000000000e+00,0.000000000000000000e+00,0.000000000000000000e+00,0.000000000000000000e+00,0.000000000000000000e+00,0.000000000000000000e+00,0.000000000000000000e+00,0.000000000000000000e+00,0.000000000000000000e+00,0.000000000000000000e+00,0.000000000000000000e+00,0.000000000000000000e+00,0.000000000000000000e+00,0.000000000000000000e+00,0.000000000000000000e+00,0.000000000000000000e+00,0.000000000000000000e+00,0.000000000000000000e+00,0.000000000000000000e+00,0.000000000000000000e+00,0.000000000000000000e+00,0.000000000000000000e+00,0.000000000000000000e+00,0.000000000000000000e+00,0.000000000000000000e+00,0.000000000000000000e+00,0.000000000000000000e+00,0.000000000000000000e+00,0.000000000000000000e+00,0.000000000000000000e+00,0.000000000000000000e+00,0.000000000000000000e+00,0.000000000000000000e+00,0.000000000000000000e+00,0.000000000000000000e+00,0.000000000000000000e+00,0.000000000000000000e+00,0.000000000000000000e+00,0.000000000000000000e+00,0.000000000000000000e+00,0.000000000000000000e+00,0.000000000000000000e+00,0.000000000000000000e+00,0.000000000000000000e+00
1.000000000000000000e+00,6.594594717025756836e-01,1.864864826202392578e-01,7.027027010917663574e-02,7.027027010917663574e-02,5.945945903658866882e-02,5.675675719976425171e-02,4.324324429035186768e-02,5.405405536293983459e-02,4.594594612717628479e-02,5.675675719976425171e-02,4.324324429035186768e-02,6.756756454706192017e-02,6.216216087341308594e-02,7.837837934494018555e-02,7.297297567129135132e-02,8.648648858070373535e-02,8.108107745647430420e-02,1.081081107258796692e-01,1.108108088374137878e-01,1.351351290941238403e-01,1.351351290941238403e-01,1.702702641487121582e-01,1.837837845087051392e-01,2.162162214517593384e-01,2.378378361463546753e-01,2.702702581882476807e-01,2.864864766597747803e-01,3.162162303924560547e-01,3.189189136028289795e-01,3.324324190616607666e-01,2.972972989082336426e-01,2.675675749778747559e-01,2.162162214517593384e-01,1.891891956329345703e-01,1.324324309825897217e-01,1.189189180731773376e-01,6.486486643552780151e-02,6.486486643552780151e-02,4.324324429035186768e-02,5.405405536293983459e-02,3.783783689141273499e-02,4.324324429035186768e-02,2.162162214517593384e-02,4.594594612717628479e-02,3.513513505458831787e-02,5.675675719976425171e-02,3.513513505458831787e-02,3.783783689141273499e-02,3.243243321776390076e-02,4.324324429035186768e-02,3.783783689141273499e-02,5.135134980082511902e-02,2.972972951829433441e-02,4.864864796400070190e-02,2.972972951829433441e-02,5.675675719976425171e-02,5.135134980082511902e-02,7.837837934494018555e-02,6.486486643552780151e-02,9.459459781646728516e-02,9.729729592800140381e-02,1.162162125110626221e-01,9.459459781646728516e-02,9.189189225435256958e-02,6.486486643552780151e-02,6.756756454706192017e-02,4.054053872823715210e-02,4.864864796400070190e-02,1.891891844570636749e-02,2.162162214517593384e-02,8.108108304440975189e-03,2.972972951829433441e-02,1.081081107258796692e-02,2.162162214517593384e-02,5.405405536293983459e-03,3.243243321776390076e-02,1.891891844570636749e-02,2.162162214517593384e-02,4.054053872823715210e-02,2.405405342578887939e-01,5.891891717910766602e-01,9.648648500442504883e-01,5.837838053703308105e-01,1.216216236352920532e-01,0.000000000000000000e+00,3.513513505458831787e-02,3.513513505458831787e-02,2.702702768146991730e-02,2.162162214517593384e-02,2.972972951829433441e-02,1.081081107258796692e-02,3.243243321776390076e-02,2.162162214517593384e-02,5.135134980082511902e-02,0.000000000000000000e+00,0.000000000000000000e+00,0.000000000000000000e+00,0.000000000000000000e+00,0.000000000000000000e+00,0.000000000000000000e+00,0.000000000000000000e+00,0.000000000000000000e+00,0.000000000000000000e+00,0.000000000000000000e+00,0.000000000000000000e+00,0.000000000000000000e+00,0.000000000000000000e+00,0.000000000000000000e+00,0.000000000000000000e+00,0.000000000000000000e+00,0.000000000000000000e+00,0.000000000000000000e+00,0.000000000000000000e+00,0.000000000000000000e+00,0.000000000000000000e+00,0.000000000000000000e+00,0.000000000000000000e+00,0.000000000000000000e+00,0.000000000000000000e+00,0.000000000000000000e+00,0.000000000000000000e+00,0.000000000000000000e+00,0.000000000000000000e+00,0.000000000000000000e+00,0.000000000000000000e+00,0.000000000000000000e+00,0.000000000000000000e+00,0.000000000000000000e+00,0.000000000000000000e+00,0.000000000000000000e+00,0.000000000000000000e+00,0.000000000000000000e+00,0.000000000000000000e+00,0.000000000000000000e+00,0.000000000000000000e+00,0.000000000000000000e+00,0.000000000000000000e+00,0.000000000000000000e+00,0.000000000000000000e+00,0.000000000000000000e+00,0.000000000000000000e+00,0.000000000000000000e+00,0.000000000000000000e+00,0.000000000000000000e+00,0.000000000000000000e+00,0.000000000000000000e+00,0.000000000000000000e+00,0.000000000000000000e+00,0.000000000000000000e+00,0.000000000000000000e+00,0.000000000000000000e+00,0.000000000000000000e+00,0.000000000000000000e+00,0.000000000000000000e+00,0.000000000000000000e+00,0.000000000000000000e+00,0.000000000000000000e+00,0.000000000000000000e+00,0.000000000000000000e+00,0.000000000000000000e+00,0.000000000000000000e+00,0.000000000000000000e+00,0.000000000000000000e+00,0.000000000000000000e+00,0.000000000000000000e+00,0.000000000000000000e+00,0.000000000000000000e+00,0.000000000000000000e+00,0.000000000000000000e+00,0.000000000000000000e+00,0.000000000000000000e+00,0.000000000000000000e+00,0.000000000000000000e+00,0.000000000000000000e+00,0.000000000000000000e+00,0.000000000000000000e+00,0.000000000000000000e+00,0.000000000000000000e+00,0.000000000000000000e+00,0.000000000000000000e+00,0.000000000000000000e+00,0.000000000000000000e+00,0.000000000000000000e+00,0.000000000000000000e+00,0.000000000000000000e+00,0.000000000000000000e+00,0.000000000000000000e+00
9.254143834114074707e-01,6.657458543777465820e-01,5.414364933967590332e-01,2.762430906295776367e-01,1.961326003074645996e-01,7.734806835651397705e-02,7.182320207357406616e-02,6.077348068356513977e-02,6.629834324121475220e-02,5.801105126738548279e-02,6.353591382503509521e-02,8.287292718887329102e-02,8.563535660505294800e-02,9.392265230417251587e-02,1.132596656680107117e-01,1.243093907833099365e-01,1.408839821815490723e-01,1.325966864824295044e-01,1.408839821815490723e-01,9.116022288799285889e-02,8.563535660505294800e-02,7.458563894033432007e-02,7.182320207357406616e-02,8.011049777269363403e-02,9.668508172035217285e-02,1.187845319509506226e-01,1.381215453147888184e-01,1.408839821815490723e-01,1.381215453147888184e-01,1.464088410139083862e-01,1.104972362518310547e-01,1.022099480032920837e-01,6.077348068356513977e-02,2.762430906295776367e-02,3.867403417825698853e-02,1.381215453147888184e-02,1.104972418397665024e-02,1.381215453147888184e-02,3.314917162060737610e-02,5.524862091988325119e-03,0.000000000000000000e+00,5.524862091988325119e-03,2.209944836795330048e-02,6.629834324121475220e-02,8.011049777269363403e-02,5.801105126738548279e-02,6.077348068356513977e-02,5.801105126738548279e-02,9.944751113653182983e-02,1.243093907833099365e-01,1.740331500768661499e-01,1.961326003074645996e-01,2.292817682027816772e-01,2.403314858675003052e-01,2.651933729648590088e-01,2.375690639019012451e-01,2.182320505380630493e-01,1.988950222730636597e-01,1.988950222730636597e-01,1.988950222730636597e-01,1.712707132101058960e-01,1.629834324121475220e-01,1.850828677415847778e-01,1.961326003074645996e-01,1.712707132101058960e-01,1.408839821815490723e-01,8.563535660505294800e-02,0.000000000000000000e+00,5.524862091988325119e-03,2.762431045994162560e-03,3.591160103678703308e-02,4.972375556826591492e-02,6.353591382503509521e-02,1.104972362518310547e-01,1.215469613671302795e-01,1.381215453147888184e-01,1.408839821815490723e-01,1.685082912445068359e-01,3.895027637481689453e-01,7.651933431625366211e-01,1.000000000000000000e+00,8.535911440849304199e-01,6.685082912445068359e-01,4.585635364055633545e-01,3.204419910907745361e-01,1.933701634407043457e-01,1.215469613671302795e-01,8.011049777269363403e-02,8.287292718887329102e-02,7.182320207357406616e-02,5.801105126738548279e-02,6.629834324121475220e-02,8.839779347181320190e-02,9.668508172035217285e-02,9.944751113653182983e-02,1.104972362518310547e-01,0.000000000000000000e+00,0.000000000000000000e+00,0.000000000000000000e+00,0.000000000000000000e+00,0.000000000000000000e+00,0.000000000000000000e+00,0.000000000000000000e+00,0.000000000000000000e+00,0.000000000000000000e+00,0.000000000000000000e+00,0.000000000000000000e+00,0.000000000000000000e+00,0.000000000000000000e+00,0.000000000000000000e+00,0.000000000000000000e+00,0.000000000000000000e+00,0.000000000000000000e+00,0.000000000000000000e+00,0.000000000000000000e+00,0.000000000000000000e+00,0.000000000000000000e+00,0.000000000000000000e+00,0.000000000000000000e+00,0.000000000000000000e+00,0.000000000000000000e+00,0.000000000000000000e+00,0.000000000000000000e+00,0.000000000000000000e+00,0.000000000000000000e+00,0.000000000000000000e+00,0.000000000000000000e+00,0.000000000000000000e+00,0.000000000000000000e+00,0.000000000000000000e+00,0.000000000000000000e+00,0.000000000000000000e+00,0.000000000000000000e+00,0.000000000000000000e+00,0.000000000000000000e+00,0.000000000000000000e+00,0.000000000000000000e+00,0.000000000000000000e+00,0.000000000000000000e+00,0.000000000000000000e+00,0.000000000000000000e+00,0.000000000000000000e+00,0.000000000000000000e+00,0.000000000000000000e+00,0.000000000000000000e+00,0.000000000000000000e+00,0.000000000000000000e+00,0.000000000000000000e+00,0.000000000000000000e+00,0.000000000000000000e+00,0.000000000000000000e+00,0.000000000000000000e+00,0.000000000000000000e+00,0.000000000000000000e+00,0.000000000000000000e+00,0.000000000000000000e+00,0.000000000000000000e+00,0.000000000000000000e+00,0.000000000000000000e+00,0.000000000000000000e+00,0.000000000000000000e+00,0.000000000000000000e+00,0.000000000000000000e+00,0.000000000000000000e+00,0.000000000000000000e+00,0.000000000000000000e+00,0.000000000000000000e+00,0.000000000000000000e+00,0.000000000000000000e+00,0.000000000000000000e+00,0.000000000000000000e+00,0.000000000000000000e+00,0.000000000000000000e+00,0.000000000000000000e+00,0.000000000000000000e+00,0.000000000000000000e+00,0.000000000000000000e+00,0.000000000000000000e+00,0.000000000000000000e+00,0.000000000000000000e+00,0.000000000000000000e+00,0.000000000000000000e+00,0.000000000000000000e+00,0.000000000000000000e+00,0.000000000000000000e+00,0.000000000000000000e+00,0.000000000000000000e+00,0.000000000000000000e+00
9.671361446380615234e-01,1.000000000000000000e+00,8.309859037399291992e-01,5.868544578552246094e-01,3.568075001239776611e-01,2.488262951374053955e-01,1.455399096012115479e-01,8.920187503099441528e-02,1.173708885908126831e-01,1.502347439527511597e-01,1.314553916454315186e-01,1.220657303929328918e-01,1.408450752496719360e-01,1.596244126558303833e-01,1.502347439527511597e-01,1.455399096012115479e-01,1.361502408981323242e-01,1.690140813589096069e-01,1.784037500619888306e-01,1.737089157104492188e-01,1.830985844135284424e-01,2.018779367208480835e-01,1.877934336662292480e-01,1.643192470073699951e-01,1.877934336662292480e-01,2.159624397754669189e-01,2.159624397754669189e-01,2.018779367208480835e-01,2.112676054239273071e-01,2.300469428300857544e-01,2.159624397754669189e-01,2.300469428300857544e-01,2.394366264343261719e-01,2.676056325435638428e-01,2.535211145877838135e-01,2.300469428300857544e-01,2.206572741270065308e-01,2.253521084785461426e-01,2.112676054239273071e-01,1.737089157104492188e-01,1.502347439527511597e-01,1.408450752496719360e-01,1.079812198877334595e-01,7.511737197637557983e-02,6.103286519646644592e-02,7.042253762483596802e-02,6.103286519646644592e-02,5.164319276809692383e-02,3.286384791135787964e-02,7.042253762483596802e-02,4.225352033972740173e-02,1.877934299409389496e-02,3.286384791135787964e-02,3.286384791135787964e-02,3.286384791135787964e-02,2.816901355981826782e-02,1.877934299409389496e-02,1.877934299409389496e-02,2.347417920827865601e-02,0.000000000000000000e+00,9.389671497046947479e-03,1.408450677990913391e-02,2.816901355981826782e-02,0.000000000000000000e+00,0.000000000000000000e+00,4.225352033972740173e-02,2.347417920827865601e-02,9.389671497046947479e-03,2.347417920827865601e-02,2.816901355981826782e-02,3.755868598818778992e-02,1.877934299409389496e-02,1.408450677990913391e-02,3.755868598818778992e-02,4.225352033972740173e-02,2.347417920827865601e-02,1.408450677990913391e-02,3.755868598818778992e-02,4.225352033972740173e-02,1.408450677990913391e-02,3.755868598818778992e-02,5.164319276809692383e-02,4.694835841655731201e-02,3.755868598818778992e-02,3.755868598818778992e-02,5.633802711963653564e-02,5.633802711963653564e-02,3.286384791135787964e-02,3.286384791135787964e-02,6.572769582271575928e-02,5.633802711963653564e-02,2.816901355981826782e-02,4.694835841655731201e-02,5.633802711963653564e-02,6.572769582271575928e-02,4.225352033972740173e-02,6.103286519646644592e-02,1.173708885908126831e-01,1.220657303929328918e-01,9.859155118465423584e-02,9.859155118465423584e-02,1.126760542392730713e-01,1.079812198877334595e-01,9.389671683311462402e-02,1.032863855361938477e-01,1.079812198877334595e-01,7.511737197637557983e-02,4.225352033972740173e-02,4.694835841655731201e-02,6.572769582271575928e-02,7.042253762483596802e-02,6.572769582271575928e-02,1.032863855361938477e-01,2.347417771816253662e-01,4.976525902748107910e-01,7.464788556098937988e-01,8.826290965080261230e-01,9.530516266822814941e-01,9.061033129692077637e-01,6.807511448860168457e-01,4.319248795509338379e-01,2.488262951374053955e-01,1.455399096012115479e-01,6.103286519646644592e-02,6.572769582271575928e-02,1.032863855361938477e-01,1.032863855361938477e-01,8.450704067945480347e-02,9.389671683311462402e-02,1.173708885908126831e-01,1.220657303929328918e-01,1.079812198877334595e-01,1.126760542392730713e-01,1.455399096012115479e-01,1.549295783042907715e-01,1.173708885908126831e-01,1.408450752496719360e-01,1.643192470073699951e-01,1.690140813589096069e-01,1.643192470073699951e-01,0.000000000000000000e+00,0.000000000000000000e+00,0.000000000000000000e+00,0.000000000000000000e+00,0.000000000000000000e+00,0.000000000000000000e+00,0.000000000000000000e+00,0.000000000000000000e+00,0.000000000000000000e+00,0.000000000000000000e+00,0.000000000000000000e+00,0.000000000000000000e+00,0.000000000000000000e+00,0.000000000000000000e+00,0.000000000000000000e+00,0.000000000000000000e+00,0.000000000000000000e+00,0.000000000000000000e+00,0.000000000000000000e+00,0.000000000000000000e+00,0.000000000000000000e+00,0.000000000000000000e+00,0.000000000000000000e+00,0.000000000000000000e+00,0.000000000000000000e+00,0.000000000000000000e+00,0.000000000000000000e+00,0.000000000000000000e+00,0.000000000000000000e+00,0.000000000000000000e+00,0.000000000000000000e+00,0.000000000000000000e+00,0.000000000000000000e+00,0.000000000000000000e+00,0.000000000000000000e+00,0.000000000000000000e+00,0.000000000000000000e+00,0.000000000000000000e+00,0.000000000000000000e+00,0.000000000000000000e+00,0.000000000000000000e+00,0.000000000000000000e+00,0.000000000000000000e+00,0.000000000000000000e+00,0.000000000000000000e+00,0.000000000000000000e+00,0.000000000000000000e+00,0.000000000000000000e+00
9.274611473083496094e-01,1.000000000000000000e+00,6.269429922103881836e-01,1.934369653463363647e-01,9.499136358499526978e-02,7.253886014223098755e-02,4.317789152264595032e-02,5.354058742523193359e-02,9.326425194740295410e-02,1.899827271699905396e-01,3.281520009040832520e-01,4.179620146751403809e-01,4.265975952148437500e-01,4.421416223049163818e-01,4.335060417652130127e-01,4.352331459522247314e-01,4.490500986576080322e-01,4.352331459522247314e-01,4.024179577827453613e-01,4.041450917720794678e-01,4.058721959590911865e-01,3.903281390666961670e-01,3.696027696132659912e-01,3.730570077896118164e-01,3.678756356239318848e-01,3.488773703575134277e-01,3.177892863750457764e-01,3.160621821880340576e-01,3.195164203643798828e-01,3.229706287384033203e-01,3.246977627277374268e-01,3.367875516414642334e-01,3.592400550842285156e-01,3.644214272499084473e-01,3.799654543399810791e-01,4.075993001461029053e-01,4.179620146751403809e-01,4.300518035888671875e-01,4.421416223049163818e-01,4.525043070316314697e-01,4.611398875713348389e-01,4.766839444637298584e-01,4.663212299346923828e-01,4.766839444637298584e-01,4.853195250034332275e-01,4.732297062873840332e-01,4.455958604812622070e-01,4.680483639240264893e-01,4.749568104743957520e-01,4.576856791973114014e-01,4.542314410209655762e-01,4.663212299346923828e-01,4.663212299346923828e-01,4.576856791973114014e-01,4.525043070316314697e-01,4.576856791973114014e-01,4.680483639240264893e-01,4.542314410209655762e-01,4.525043070316314697e-01,4.611398875713348389e-01,4.732297062873840332e-01,4.628670215606689453e-01,4.628670215606689453e-01,4.697754681110382080e-01,4.732297062873840332e-01,4.663212299346923828e-01,4.594127833843231201e-01,4.697754681110382080e-01,4.801381826400756836e-01,4.835923910140991211e-01,4.853195250034332275e-01,4.991364479064941406e-01,5.164076089859008789e-01,5.008635520935058594e-01,4.956822097301483154e-01,5.457685589790344238e-01,5.613126158714294434e-01,5.302245020866394043e-01,5.146805047988891602e-01,5.423143506050109863e-01,5.630397200584411621e-01,5.405872464179992676e-01,4.956822097301483154e-01,4.974093139171600342e-01,4.801381826400756836e-01,4.594127833843231201e-01,4.594127833843231201e-01,4.576856791973114014e-01,4.473229646682739258e-01,4.404145181179046631e-01,4.473229646682739258e-01,4.542314410209655762e-01,4.559585452079772949e-01,4.576856791973114014e-01,4.542314410209655762e-01,4.490500986576080322e-01,4.525043070316314697e-01,5.578583478927612305e-01,7.530224323272705078e-01,7.892918586730957031e-01,8.739205598831176758e-01,9.602763652801513672e-01,5.371329784393310547e-01,1.139896363019943237e-01,5.008635669946670532e-02,1.899827271699905396e-02,0.000000000000000000e+00,8.635578677058219910e-03,5.008635669946670532e-02,1.157167553901672363e-01,2.556131184101104736e-01,3.730570077896118164e-01,3.989637196063995361e-01,4.024179577827453613e-01,4.179620146751403809e-01,4.248704612255096436e-01,4.214162230491638184e-01,4.162348806858062744e-01,4.145077764987945557e-01,4.196891188621520996e-01,0.000000000000000000e+00,0.000000000000000000e+00,0.000000000000000000e+00,0.000000000000000000e+00,0.000000000000000000e+00,0.000000000000000000e+00,0.000000000000000000e+00,0.000000000000000000e+00,0.000000000000000000e+00,0.000000000000000000e+00,0.000000000000000000e+00,0.000000000000000000e+00,0.000000000000000000e+00,0.000000000000000000e+00,0.000000000000000000e+00,0.000000000000000000e+00,0.000000000000000000e+00,0.000000000000000000e+00,0.000000000000000000e+00,0.000000000000000000e+00,0.000000000000000000e+00,0.000000000000000000e+00,0.000000000000000000e+00,0.000000000000000000e+00,0.000000000000000000e+00,0.000000000000000000e+00,0.000000000000000000e+00,0.000000000000000000e+00,0.000000000000000000e+00,0.000000000000000000e+00,0.000000000000000000e+00,0.000000000000000000e+00,0.000000000000000000e+00,0.000000000000000000e+00,0.000000000000000000e+00,0.000000000000000000e+00,0.000000000000000000e+00,0.000000000000000000e+00,0.000000000000000000e+00,0.000000000000000000e+00,0.000000000000000000e+00,0.000000000000000000e+00,0.000000000000000000e+00,0.000000000000000000e+00,0.000000000000000000e+00,0.000000000000000000e+00,0.000000000000000000e+00,0.000000000000000000e+00,0.000000000000000000e+00,0.000000000000000000e+00,0.000000000000000000e+00,0.000000000000000000e+00,0.000000000000000000e+00,0.000000000000000000e+00,0.000000000000000000e+00,0.000000000000000000e+00,0.000000000000000000e+00,0.000000000000000000e+00,0.000000000000000000e+00,0.000000000000000000e+00,0.000000000000000000e+00,0.000000000000000000e+00,0.000000000000000000e+00,0.000000000000000000e+00,0.000000000000000000e+00,0.000000000000000000e+00,0.000000000000000000e+00,0.000000000000000000e+00
4.236111044883728027e-01,7.916666865348815918e-01,1.000000000000000000e+00,2.569444477558135986e-01,0.000000000000000000e+00,2.777777910232543945e-01,4.652777910232543945e-01,5.208333134651184082e-01,4.722222089767456055e-01,5.555555820465087891e-01,5.347222089767456055e-01,5.902777910232543945e-01,5.763888955116271973e-01,5.972222089767456055e-01,5.763888955116271973e-01,5.972222089767456055e-01,5.763888955116271973e-01,6.250000000000000000e-01,6.111111044883728027e-01,6.527777910232543945e-01,6.250000000000000000e-01,6.597222089767456055e-01,6.527777910232543945e-01,6.875000000000000000e-01,6.666666865348815918e-01,7.152777910232543945e-01,7.222222089767456055e-01,7.638888955116271973e-01,7.708333134651184082e-01,8.263888955116271973e-01,8.333333134651184082e-01,8.958333134651184082e-01,9.236111044883728027e-01,9.583333134651184082e-01,9.444444179534912109e-01,9.652777910232543945e-01,9.027777910232543945e-01,8.750000000000000000e-01,7.430555820465087891e-01,7.500000000000000000e-01,6.805555820465087891e-01,6.805555820465087891e-01,6.319444179534912109e-01,6.319444179534912109e-01,6.111111044883728027e-01,6.180555820465087891e-01,6.111111044883728027e-01,6.319444179534912109e-01,5.833333134651184082e-01,5.625000000000000000e-01,5.486111044883728027e-01,5.763888955116271973e-01,5.555555820465087891e-01,5.833333134651184082e-01,5.625000000000000000e-01,5.972222089767456055e-01,5.555555820465087891e-01,6.111111044883728027e-01,5.833333134651184082e-01,6.041666865348815918e-01,5.763888955116271973e-01,5.833333134651184082e-01,5.069444179534912109e-01,5.763888955116271973e-01,5.347222089767456055e-01,5.902777910232543945e-01,5.347222089767456055e-01,5.486111044883728027e-01,5.277777910232543945e-01,5.277777910232543945e-01,5.138888955116271973e-01,5.416666865348815918e-01,4.861111044883728027e-01,5.416666865348815918e-01,5.000000000000000000e-01,5.416666865348815918e-01,5.069444179534912109e-01,5.277777910232543945e-01,4.930555522441864014e-01,5.277777910232543945e-01,5.000000000000000000e-01,5.277777910232543945e-01,5.069444179534912109e-01,5.347222089767456055e-01,5.555555820465087891e-01,5.833333134651184082e-01,5.625000000000000000e-01,6.041666865348815918e-01,5.625000000000000000e-01,5.138888955116271973e-01,4.791666567325592041e-01,5.347222089767456055e-01,4.861111044883728027e-01,5.694444179534912109e-01,4.861111044883728027e-01,4.444444477558135986e-01,4.166666567325592041e-01,4.861111044883728027e-01,4.305555522441864014e-01,4.513888955116271973e-01,4.236111044883728027e-01,4.791666567325592041e-01,4.375000000000000000e-01,4.444444477558135986e-01,4.166666567325592041e-01,4.930555522441864014e-01,5.208333134651184082e-01,6.041666865348815918e-01,4.791666567325592041e-01,4.236111044883728027e-01,2.291666716337203979e-01,5.069444179534912109e-01,7.013888955116271973e-01,1.180555522441864014e-01,1.388888899236917496e-02,2.708333432674407959e-01,3.958333432674407959e-01,4.513888955116271973e-01,4.444444477558135986e-01,5.069444179534912109e-01,4.652777910232543945e-01,4.861111044883728027e-01,4.722222089767456055e-01,5.347222089767456055e-01,4.930555522441864014e-01,5.416666865348815918e-01,4.930555522441864014e-01,5.555555820465087891e-01,5.208333134651184082e-01,5.625000000000000000e-01,5.277777910232543945e-01,0.000000000000000000e+00,0.000000000000000000e+00,0.000000000000000000e+00,0.000000000000000000e+00,0.000000000000000000e+00,0.000000000000000000e+00,0.000000000000000000e+00,0.000000000000000000e+00,0.000000000000000000e+00,0.000000000000000000e+00,0.000000000000000000e+00,0.000000000000000000e+00,0.000000000000000000e+00,0.000000000000000000e+00,0.000000000000000000e+00,0.000000000000000000e+00,0.000000000000000000e+00,0.000000000000000000e+00,0.000000000000000000e+00,0.000000000000000000e+00,0.000000000000000000e+00,0.000000000000000000e+00,0.000000000000000000e+00,0.000000000000000000e+00,0.000000000000000000e+00,0.000000000000000000e+00,0.000000000000000000e+00,0.000000000000000000e+00,0.000000000000000000e+00,0.000000000000000000e+00,0.000000000000000000e+00,0.000000000000000000e+00,0.000000000000000000e+00,0.000000000000000000e+00,0.000000000000000000e+00,0.000000000000000000e+00,0.000000000000000000e+00,0.000000000000000000e+00,0.000000000000000000e+00,0.000000000000000000e+00,0.000000000000000000e+00,0.000000000000000000e+00,0.000000000000000000e+00,0.000000000000000000e+00,0.000000000000000000e+00,0.000000000000000000e+00,0.000000000000000000e+00,0.000000000000000000e+00,0.000000000000000000e+00,0.000000000000000000e+00,0.000000000000000000e+00,0.000000000000000000e+00,0.000000000000000000e+00,0.000000000000000000e+00,0.000000000000000000e+00,0.000000000000000000e+00,0.000000000000000000e+00
7.168141603469848633e-01,5.398229956626892090e-01,2.831858396530151367e-01,1.297935098409652710e-01,6.489675492048263550e-02,7.669616490602493286e-02,2.654867246747016907e-02,3.244837746024131775e-02,8.849557489156723022e-03,4.424778744578361511e-02,2.064896747469902039e-02,0.000000000000000000e+00,2.949852496385574341e-03,2.654867246747016907e-02,6.784661114215850830e-02,8.259586989879608154e-02,1.386430710554122925e-01,1.651917397975921631e-01,2.123893797397613525e-01,2.212389409542083740e-01,2.448377609252929688e-01,2.418879121541976929e-01,2.595870196819305420e-01,2.831858396530151367e-01,2.625368833541870117e-01,2.743362784385681152e-01,2.654867172241210938e-01,2.802359759807586670e-01,2.566371560096740723e-01,2.300885021686553955e-01,2.123893797397613525e-01,2.271386384963989258e-01,2.035398185253143311e-01,2.359881997108459473e-01,1.976401209831237793e-01,2.182890921831130981e-01,2.094395309686660767e-01,2.241887897253036499e-01,2.094395309686660767e-01,2.212389409542083740e-01,1.858407109975814819e-01,2.330383509397506714e-01,2.094395309686660767e-01,2.271386384963989258e-01,2.153392285108566284e-01,2.330383509397506714e-01,2.035398185253143311e-01,1.917404085397720337e-01,2.035398185253143311e-01,2.005899697542190552e-01,1.887905597686767578e-01,2.713864445686340332e-01,2.241887897253036499e-01,2.300885021686553955e-01,2.418879121541976929e-01,2.389380484819412231e-01,2.241887897253036499e-01,2.241887897253036499e-01,2.448377609252929688e-01,2.359881997108459473e-01,2.064896821975708008e-01,2.359881997108459473e-01,2.094395309686660767e-01,2.035398185253143311e-01,2.035398185253143311e-01,2.153392285108566284e-01,2.005899697542190552e-01,1.976401209831237793e-01,2.035398185253143311e-01,2.241887897253036499e-01,2.064896821975708008e-01,2.831858396530151367e-01,3.864306807518005371e-01,5.191740393638610840e-01,6.194690465927124023e-01,8.407079577445983887e-01,8.938053250312805176e-01,1.000000000000000000e+00,9.233038425445556641e-01,7.109144330024719238e-01,3.333333432674407959e-01,2.300885021686553955e-01,1.858407109975814819e-01,1.592920422554016113e-01,1.386430710554122925e-01,9.734513610601425171e-02,6.194690242409706116e-02,0.000000000000000000e+00,0.000000000000000000e+00,0.000000000000000000e+00,0.000000000000000000e+00,0.000000000000000000e+00,0.000000000000000000e+00,0.000000000000000000e+00,0.000000000000000000e+00,0.000000000000000000e+00,0.000000000000000000e+00,0.000000000000000000e+00,0.000000000000000000e+00,0.000000000000000000e+00,0.000000000000000000e+00,0.000000000000000000e+00,0.000000000000000000e+00,0.000000000000000000e+00,0.000000000000000000e+00,0.000000000000000000e+00,0.000000000000000000e+00,0.000000000000000000e+00,0.000000000000000000e+00,0.000000000000000000e+00,0.000000000000000000e+00,0.000000000000000000e+00,0.000000000000000000e+00,0.000000000000000000e+00,0.000000000000000000e+00,0.000000000000000000e+00,0.000000000000000000e+00,0.000000000000000000e+00,0.000000000000000000e+00,0.000000000000000000e+00,0.000000000000000000e+00,0.000000000000000000e+00,0.000000000000000000e+00,0.000000000000000000e+00,0.000000000000000000e+00,0.000000000000000000e+00,0.000000000000000000e+00,0.000000000000000000e+00,0.000000000000000000e+00,0.000000000000000000e+00,0.000000000000000000e+00,0.000000000000000000e+00,0.000000000000000000e+00,0.000000000000000000e+00,0.000000000000000000e+00,0.000000000000000000e+00,0.000000000000000000e+00,0.000000000000000000e+00,0.000000000000000000e+00,0.000000000000000000e+00,0.000000000000000000e+00,0.000000000000000000e+00,0.000000000000000000e+00,0.000000000000000000e+00,0.000000000000000000e+00,0.000000000000000000e+00,0.000000000000000000e+00,0.000000000000000000e+00,0.000000000000000000e+00,0.000000000000000000e+00,0.000000000000000000e+00,0.000000000000000000e+00,0.000000000000000000e+00,0.000000000000000000e+00,0.000000000000000000e+00,0.000000000000000000e+00,0.000000000000000000e+00,0.000000000000000000e+00,0.000000000000000000e+00,0.000000000000000000e+00,0.000000000000000000e+00,0.000000000000000000e+00,0.000000000000000000e+00,0.000000000000000000e+00,0.000000000000000000e+00,0.000000000000000000e+00,0.000000000000000000e+00,0.000000000000000000e+00,0.000000000000000000e+00,0.000000000000000000e+00,0.000000000000000000e+00,0.000000000000000000e+00,0.000000000000000000e+00,0.000000000000000000e+00,0.000000000000000000e+00,0.000000000000000000e+00,0.000000000000000000e+00,0.000000000000000000e+00,0.000000000000000000e+00,0.000000000000000000e+00,0.000000000000000000e+00,0.000000000000000000e+00,0.000000000000000000e+00,0.000000000000000000e+00,0.000000000000000000e+00,0.000000000000000000e+00,0.000000000000000000e+00,0.000000000000000000e+00
8.742138147354125977e-01,8.490566015243530273e-01,4.800838530063629150e-01,5.870021134614944458e-02,9.014675021171569824e-02,3.102725446224212646e-01,3.878406584262847900e-01,3.857442438602447510e-01,3.899371027946472168e-01,3.920335471630096436e-01,3.962264060974121094e-01,4.025157094001770020e-01,4.129979014396667480e-01,4.129979014396667480e-01,4.150943458080291748e-01,4.339622557163238525e-01,4.423480033874511719e-01,4.444444477558135986e-01,4.528301954269409180e-01,4.696016907691955566e-01,4.842767417430877686e-01,4.968553483486175537e-01,5.073375105857849121e-01,5.283018946647644043e-01,5.471698045730590820e-01,5.576519966125488281e-01,5.555555820465087891e-01,5.702306032180786133e-01,5.828092098236083984e-01,5.807127952575683594e-01,5.744234919548034668e-01,5.765199065208435059e-01,5.618448853492736816e-01,5.262054800987243652e-01,4.989517927169799805e-01,4.779874086380004883e-01,4.486373066902160645e-01,4.255765080451965332e-01,4.088050425052642822e-01,3.983228504657745361e-01,3.962264060974121094e-01,3.899371027946472168e-01,3.794549405574798584e-01,3.794549405574798584e-01,3.857442438602447510e-01,3.710691928863525391e-01,3.752620518207550049e-01,3.794549405574798584e-01,3.857442438602447510e-01,3.836477994918823242e-01,3.857442438602447510e-01,3.920335471630096436e-01,3.920335471630096436e-01,3.857442438602447510e-01,3.815513551235198975e-01,3.857442438602447510e-01,3.920335471630096436e-01,3.815513551235198975e-01,3.773584961891174316e-01,3.794549405574798584e-01,3.836477994918823242e-01,3.689727485179901123e-01,3.689727485179901123e-01,3.731656074523925781e-01,3.731656074523925781e-01,3.668763041496276855e-01,3.626834452152252197e-01,3.689727485179901123e-01,3.689727485179901123e-01,3.647798597812652588e-01,3.647798597812652588e-01,3.668763041496276855e-01,3.710691928863525391e-01,3.668763041496276855e-01,3.647798597812652588e-01,3.668763041496276855e-01,3.689727485179901123e-01,3.689727485179901123e-01,3.689727485179901123e-01,3.857442438602447510e-01,4.067085981369018555e-01,4.067085981369018555e-01,4.192872047424316406e-01,4.297693967819213867e-01,4.318658411502838135e-01,4.255765080451965332e-01,4.109014570713043213e-01,3.962264060974121094e-01,3.941299915313720703e-01,3.752620518207550049e-01,3.584905564785003662e-01,3.668763041496276855e-01,3.710691928863525391e-01,3.647798597812652588e-01,3.605870008468627930e-01,3.731656074523925781e-01,3.794549405574798584e-01,3.668763041496276855e-01,3.752620518207550049e-01,3.878406584262847900e-01,4.025157094001770020e-01,4.360587000846862793e-01,6.016771197319030762e-01,8.427672982215881348e-01,1.000000000000000000e+00,7.924528121948242188e-01,3.228511512279510498e-01,0.000000000000000000e+00,1.593291461467742920e-01,3.815513551235198975e-01,4.276729524135589600e-01,4.234800934791564941e-01,4.297693967819213867e-01,4.276729524135589600e-01,4.318658411502838135e-01,4.444444477558135986e-01,4.528301954269409180e-01,4.465408921241760254e-01,4.549266099929809570e-01,4.654088020324707031e-01,4.779874086380004883e-01,4.863731563091278076e-01,4.863731563091278076e-01,5.010482072830200195e-01,5.178197026252746582e-01,5.157232880592346191e-01,0.000000000000000000e+00,0.000000000000000000e+00,0.000000000000000000e+00,0.000000000000000000e+00,0.000000000000000000e+00,0.000000000000000000e+00,0.000000000000000000e+00,0.000000000000000000e+00,0.000000000000000000e+00,0.000000000000000000e+00,0.000000000000000000e+00,0.000000000000000000e+00,0.000000000000000000e+00,0.000000000000000000e+00,0.000000000000000000e+00,0.000000000000000000e+00,0.000000000000000000e+00,0.000000000000000000e+00,0.000000000000000000e+00,0.000000000000000000e+00,0.000000000000000000e+00,0.000000000000000000e+00,0.000000000000000000e+00,0.000000000000000000e+00,0.000000000000000000e+00,0.000000000000000000e+00,0.000000000000000000e+00,0.000000000000000000e+00,0.000000000000000000e+00,0.000000000000000000e+00,0.000000000000000000e+00,0.000000000000000000e+00,0.000000000000000000e+00,0.000000000000000000e+00,0.000000000000000000e+00,0.000000000000000000e+00,0.000000000000000000e+00,0.000000000000000000e+00,0.000000000000000000e+00,0.000000000000000000e+00,0.000000000000000000e+00,0.000000000000000000e+00,0.000000000000000000e+00,0.000000000000000000e+00,0.000000000000000000e+00,0.000000000000000000e+00,0.000000000000000000e+00,0.000000000000000000e+00,0.000000000000000000e+00,0.000000000000000000e+00,0.000000000000000000e+00,0.000000000000000000e+00,0.000000000000000000e+00,0.000000000000000000e+00,0.000000000000000000e+00,0.000000000000000000e+00,0.000000000000000000e+00,0.000000000000000000e+00,0.000000000000000000e+00,0.000000000000000000e+00,0.000000000000000000e+00,0.000000000000000000e+00
1.000000000000000000e+00,9.960861206054687500e-01,6.947162151336669922e-01,3.365949094295501709e-01,2.387475520372390747e-01,2.681017518043518066e-01,1.917808204889297485e-01,1.741683036088943481e-01,1.643835604190826416e-01,1.878669261932373047e-01,1.898238807916641235e-01,1.526418775320053101e-01,1.330724060535430908e-01,1.624266207218170166e-01,1.526418775320053101e-01,1.193737760186195374e-01,1.291585117578506470e-01,1.428571492433547974e-01,1.272015720605850220e-01,1.095890402793884277e-01,9.393346309661865234e-02,8.023483306169509888e-02,6.457925587892532349e-02,3.718199580907821655e-02,1.761252433061599731e-02,3.913894295692443848e-03,3.913894295692443848e-03,0.000000000000000000e+00,1.761252433061599731e-02,3.913894295692443848e-02,6.457925587892532349e-02,8.806262165307998657e-02,1.272015720605850220e-01,1.545988321304321289e-01,1.878669261932373047e-01,1.898238807916641235e-01,1.800391376018524170e-01,2.074363976716995239e-01,1.956947147846221924e-01,1.741683036088943481e-01,1.956947147846221924e-01,1.917808204889297485e-01,1.741683036088943481e-01,1.819960922002792358e-01,1.878669261932373047e-01,1.702544093132019043e-01,1.819960922002792358e-01,1.780821979045867920e-01,1.819960922002792358e-01,1.859099864959716797e-01,2.211350351572036743e-01,2.289628237485885620e-01,2.270058691501617432e-01,2.681017518043518066e-01,2.974559664726257324e-01,2.622309327125549316e-01,2.563600838184356689e-01,2.661448121070861816e-01,2.407045066356658936e-01,2.035225033760070801e-01,1.663405150175094604e-01,1.663405150175094604e-01,1.682974547147750854e-01,1.467710435390472412e-01,1.448140889406204224e-01,1.448140889406204224e-01,1.272015720605850220e-01,2.093933522701263428e-01,4.383561611175537109e-01,6.712328791618347168e-01,8.669275641441345215e-01,8.884540200233459473e-01,6.164383292198181152e-01,2.407045066356658936e-01,1.330724060535430908e-01,1.330724060535430908e-01,8.610567450523376465e-02,5.675146728754043579e-02,7.436399161815643311e-02,6.066536158323287964e-02,0.000000000000000000e+00,0.000000000000000000e+00,0.000000000000000000e+00,0.000000000000000000e+00,0.000000000000000000e+00,0.000000000000000000e+00,0.000000000000000000e+00,0.000000000000000000e+00,0.000000000000000000e+00,0.000000000000000000e+00,0.000000000000000000e+00,0.000000000000000000e+00,0.000000000000000000e+00,0.000000000000000000e+00,0.000000000000000000e+00,0.000000000000000000e+00,0.000000000000000000e+00,0.000000000000000000e+00,0.000000000000000000e+00,0.000000000000000000e+00,0.000000000000000000e+00,0.000000000000000000e+00,0.000000000000000000e+00,0.000000000000000000e+00,0.000000000000000000e+00,0.000000000000000000e+00,0.000000000000000000e+00,0.000000000000000000e+00,0.000000000000000000e+00,0.000000000000000000e+00,0.000000000000000000e+00,0.000000000000000000e+00,0.000000000000000000e+00,0.000000000000000000e+00,0.000000000000000000e+00,0.000000000000000000e+00,0.000000000000000000e+00,0.000000000000000000e+00,0.000000000000000000e+00,0.000000000000000000e+00,0.000000000000000000e+00,0.000000000000000000e+00,0.000000000000000000e+00,0.000000000000000000e+00,0.000000000000000000e+00,0.000000000000000000e+00,0.000000000000000000e+00,0.000000000000000000e+00,0.000000000000000000e+00,0.000000000000000000e+00,0.000000000000000000e+00,0.000000000000000000e+00,0.000000000000000000e+00,0.000000000000000000e+00,0.000000000000000000e+00,0.000000000000000000e+00,0.000000000000000000e+00,0.000000000000000000e+00,0.000000000000000000e+00,0.000000000000000000e+00,0.000000000000000000e+00,0.000000000000000000e+00,0.000000000000000000e+00,0.000000000000000000e+00,0.000000000000000000e+00,0.000000000000000000e+00,0.000000000000000000e+00,0.000000000000000000e+00,0.000000000000000000e+00,0.000000000000000000e+00,0.000000000000000000e+00,0.000000000000000000e+00,0.000000000000000000e+00,0.000000000000000000e+00,0.000000000000000000e+00,0.000000000000000000e+00,0.000000000000000000e+00,0.000000000000000000e+00,0.000000000000000000e+00,0.000000000000000000e+00,0.000000000000000000e+00,0.000000000000000000e+00,0.000000000000000000e+00,0.000000000000000000e+00,0.000000000000000000e+00,0.000000000000000000e+00,0.000000000000000000e+00,0.000000000000000000e+00,0.000000000000000000e+00,0.000000000000000000e+00,0.000000000000000000e+00,0.000000000000000000e+00,0.000000000000000000e+00,0.000000000000000000e+00,0.000000000000000000e+00,0.000000000000000000e+00,0.000000000000000000e+00,0.000000000000000000e+00,0.000000000000000000e+00,0.000000000000000000e+00,0.000000000000000000e+00,0.000000000000000000e+00,0.000000000000000000e+00,0.000000000000000000e+00,0.000000000000000000e+00,0.000000000000000000e+00,0.000000000000000000e+00,0.000000000000000000e+00
9.855072498321533203e-01,8.804348111152648926e-01,5.181159377098083496e-01,2.137681096792221069e-01,1.268115937709808350e-01,1.195652186870574951e-01,8.333333581686019897e-02,7.971014827489852905e-02,6.521739065647125244e-02,6.884057819843292236e-02,6.159420311450958252e-02,6.521739065647125244e-02,3.623188287019729614e-02,2.536231838166713715e-02,7.246376946568489075e-03,3.623188473284244537e-03,0.000000000000000000e+00,1.449275389313697815e-02,2.173913083970546722e-02,2.898550778627395630e-02,3.985507413744926453e-02,4.710144922137260437e-02,5.797101557254791260e-02,6.521739065647125244e-02,5.797101557254791260e-02,9.057971090078353882e-02,9.057971090078353882e-02,8.333333581686019897e-02,7.608695328235626221e-02,9.057971090078353882e-02,1.050724610686302185e-01,1.376811563968658447e-01,1.340579688549041748e-01,1.666666716337203979e-01,1.594202965497970581e-01,1.666666716337203979e-01,1.594202965497970581e-01,1.666666716337203979e-01,1.485507190227508545e-01,1.485507190227508545e-01,1.485507190227508545e-01,1.666666716337203979e-01,1.594202965497970581e-01,1.666666716337203979e-01,1.594202965497970581e-01,1.702898591756820679e-01,1.702898591756820679e-01,1.847826093435287476e-01,1.811594218015670776e-01,1.775362342596054077e-01,1.630434840917587280e-01,1.666666716337203979e-01,1.521739065647125244e-01,1.594202965497970581e-01,1.557970941066741943e-01,1.666666716337203979e-01,1.557970941066741943e-01,1.594202965497970581e-01,1.449275314807891846e-01,1.521739065647125244e-01,1.557970941066741943e-01,1.521739065647125244e-01,1.594202965497970581e-01,1.630434840917587280e-01,1.449275314807891846e-01,1.702898591756820679e-01,1.521739065647125244e-01,1.521739065647125244e-01,1.557970941066741943e-01,1.666666716337203979e-01,1.630434840917587280e-01,1.702898591756820679e-01,1.739130467176437378e-01,1.775362342596054077e-01,1.630434840917587280e-01,2.101449221372604370e-01,4.456521868705749512e-01,7.173913121223449707e-01,9.782608747482299805e-01,1.000000000000000000e+00,7.934782505035400391e-01,3.405797183513641357e-01,1.956521719694137573e-01,1.231884062290191650e-01,8.695652335882186890e-02,6.521739065647125244e-02,5.434782430529594421e-02,4.710144922137260437e-02,2.536231838166713715e-02,3.260869532823562622e-02,0.000000000000000000e+00,1.449275389313697815e-02,2.173913083970546722e-02,2.898550778627395630e-02,3.260869532823562622e-02,0.000000000000000000e+00,0.000000000000000000e+00,0.000000000000000000e+00,0.000000000000000000e+00,0.000000000000000000e+00,0.000000000000000000e+00,0.000000000000000000e+00,0.000000000000000000e+00,0.000000000000000000e+00,0.000000000000000000e+00,0.000000000000000000e+00,0.000000000000000000e+00,0.000000000000000000e+00,0.000000000000000000e+00,0.000000000000000000e+00,0.000000000000000000e+00,0.000000000000000000e+00,0.000000000000000000e+00,0.000000000000000000e+00,0.000000000000000000e+00,0.000000000000000000e+00,0.000000000000000000e+00,0.000000000000000000e+00,0.000000000000000000e+00,0.000000000000000000e+00,0.000000000000000000e+00,0.000000000000000000e+00,0.000000000000000000e+00,0.000000000000000000e+00,0.000000000000000000e+00,0.000000000000000000e+00,0.000000000000000000e+00,0.000000000000000000e+00,0.000000000000000000e+00,0.000000000000000000e+00,0.000000000000000000e+00,0.000000000000000000e+00,0.000000000000000000e+00,0.000000000000000000e+00,0.000000000000000000e+00,0.000000000000000000e+00,0.000000000000000000e+00,0.000000000000000000e+00,0.000000000000000000e+00,0.000000000000000000e+00,0.000000000000000000e+00,0.000000000000000000e+00,0.000000000000000000e+00,0.000000000000000000e+00,0.000000000000000000e+00,0.000000000000000000e+00,0.000000000000000000e+00,0.000000000000000000e+00,0.000000000000000000e+00,0.000000000000000000e+00,0.000000000000000000e+00,0.000000000000000000e+00,0.000000000000000000e+00,0.000000000000000000e+00,0.000000000000000000e+00,0.000000000000000000e+00,0.000000000000000000e+00,0.000000000000000000e+00,0.000000000000000000e+00,0.000000000000000000e+00,0.000000000000000000e+00,0.000000000000000000e+00,0.000000000000000000e+00,0.000000000000000000e+00,0.000000000000000000e+00,0.000000000000000000e+00,0.000000000000000000e+00,0.000000000000000000e+00,0.000000000000000000e+00,0.000000000000000000e+00,0.000000000000000000e+00,0.000000000000000000e+00,0.000000000000000000e+00,0.000000000000000000e+00,0.000000000000000000e+00,0.000000000000000000e+00,0.000000000000000000e+00,0.000000000000000000e+00,0.000000000000000000e+00,0.000000000000000000e+00,0.000000000000000000e+00,0.000000000000000000e+00,0.000000000000000000e+00,0.000000000000000000e+00,0.000000000000000000e+00,0.000000000000000000e+00,0.000000000000000000e+00,0.000000000000000000e+00
1.000000000000000000e+00,6.575630307197570801e-01,1.785714328289031982e-01,1.785714328289031982e-01,1.365546286106109619e-01,3.571428731083869934e-02,2.100840397179126740e-02,6.722689419984817505e-02,1.596638709306716919e-01,2.521008551120758057e-01,2.941176593303680420e-01,3.025210201740264893e-01,3.046218454837799072e-01,3.130252063274383545e-01,3.256302475929260254e-01,3.193277418613433838e-01,3.172268867492675781e-01,3.298319280147552490e-01,3.382352888584136963e-01,3.361344635486602783e-01,3.340336084365844727e-01,3.340336084365844727e-01,3.445378243923187256e-01,3.466386497020721436e-01,3.445378243923187256e-01,3.529411852359771729e-01,3.634453713893890381e-01,3.697479069232940674e-01,3.718487322330474854e-01,3.802520930767059326e-01,3.928571343421936035e-01,3.886554539203643799e-01,3.928571343421936035e-01,4.033613502979278564e-01,4.201680719852447510e-01,4.180672168731689453e-01,4.222688972949981689e-01,4.348739385604858398e-01,4.537815153598785400e-01,4.642857015132904053e-01,4.684873819351196289e-01,4.831932783126831055e-01,4.978991448879241943e-01,4.957983195781707764e-01,4.915966391563415527e-01,4.831932783126831055e-01,4.684873819351196289e-01,4.411764740943908691e-01,4.138655364513397217e-01,3.949579894542694092e-01,3.739495873451232910e-01,3.592436909675598145e-01,3.466386497020721436e-01,3.361344635486602783e-01,3.382352888584136963e-01,3.361344635486602783e-01,3.319327831268310547e-01,3.361344635486602783e-01,3.424369692802429199e-01,3.487395048141479492e-01,3.445378243923187256e-01,3.466386497020721436e-01,3.487395048141479492e-01,3.487395048141479492e-01,3.319327831268310547e-01,3.403361439704895020e-01,3.424369692802429199e-01,3.298319280147552490e-01,3.235294222831726074e-01,3.256302475929260254e-01,3.256302475929260254e-01,3.172268867492675781e-01,3.130252063274383545e-01,3.151260614395141602e-01,3.193277418613433838e-01,3.130252063274383545e-01,3.025210201740264893e-01,3.046218454837799072e-01,3.088235259056091309e-01,3.025210201740264893e-01,2.983193397521972656e-01,3.025210201740264893e-01,3.109243810176849365e-01,3.088235259056091309e-01,3.025210201740264893e-01,3.088235259056091309e-01,3.109243810176849365e-01,3.004201650619506836e-01,3.004201650619506836e-01,3.046218454837799072e-01,3.109243810176849365e-01,3.151260614395141602e-01,3.172268867492675781e-01,3.277311027050018311e-01,3.361344635486602783e-01,3.424369692802429199e-01,3.613445460796356201e-01,3.781512677669525146e-01,3.676470518112182617e-01,3.508403301239013672e-01,3.445378243923187256e-01,3.277311027050018311e-01,3.130252063274383545e-01,3.025210201740264893e-01,2.962184846401214600e-01,3.046218454837799072e-01,3.025210201740264893e-01,2.941176593303680420e-01,2.920168042182922363e-01,2.941176593303680420e-01,3.004201650619506836e-01,3.046218454837799072e-01,2.773109376430511475e-01,2.100840359926223755e-01,2.394957989454269409e-01,5.945377945899963379e-01,9.810924530029296875e-01,7.500000000000000000e-01,2.521008551120758057e-01,1.974789947271347046e-01,1.407563090324401855e-01,1.050420198589563370e-02,0.000000000000000000e+00,8.613445609807968140e-02,1.953781545162200928e-01,2.605042159557342529e-01,2.857142984867095947e-01,2.899159789085388184e-01,2.899159789085388184e-01,3.046218454837799072e-01,3.088235259056091309e-01,3.151260614395141602e-01,3.130252063274383545e-01,3.193277418613433838e-01,3.235294222831726074e-01,3.256302475929260254e-01,3.277311027050018311e-01,3.361344635486602783e-01,3.445378243923187256e-01,3.487395048141479492e-01,0.000000000000000000e+00,0.000000000000000000e+00,0.000000000000000000e+00,0.000000000000000000e+00,0.000000000000000000e+00,0.000000000000000000e+00,0.000000000000000000e+00,0.000000000000000000e+00,0.000000000000000000e+00,0.000000000000000000e+00,0.000000000000000000e+00,0.000000000000000000e+00,0.000000000000000000e+00,0.000000000000000000e+00,0.000000000000000000e+00,0.000000000000000000e+00,0.000000000000000000e+00,0.000000000000000000e+00,0.000000000000000000e+00,0.000000000000000000e+00,0.000000000000000000e+00,0.000000000000000000e+00,0.000000000000000000e+00,0.000000000000000000e+00,0.000000000000000000e+00,0.000000000000000000e+00,0.000000000000000000e+00,0.000000000000000000e+00,0.000000000000000000e+00,0.000000000000000000e+00,0.000000000000000000e+00,0.000000000000000000e+00,0.000000000000000000e+00,0.000000000000000000e+00,0.000000000000000000e+00,0.000000000000000000e+00,0.000000000000000000e+00,0.000000000000000000e+00,0.000000000000000000e+00,0.000000000000000000e+00,0.000000000000000000e+00,0.000000000000000000e+00,0.000000000000000000e+00,0.000000000000000000e+00,0.000000000000000000e+00,0.000000000000000000e+00,0.000000000000000000e+00,0.000000000000000000e+00
9.867374300956726074e-01,9.628646969795227051e-01,8.090185523033142090e-01,3.580901920795440674e-01,8.222811669111251831e-02,1.618037074804306030e-01,1.379310339689254761e-01,7.957559823989868164e-02,3.183024004101753235e-02,6.366048008203506470e-02,6.631299853324890137e-02,7.957559823989868164e-02,5.835543945431709290e-02,7.692307978868484497e-02,7.161803543567657471e-02,7.427055388689041138e-02,6.896551698446273804e-02,7.957559823989868164e-02,8.222811669111251831e-02,7.957559823989868164e-02,7.161803543567657471e-02,9.549071639776229858e-02,8.488063514232635498e-02,1.114058345556259155e-01,8.488063514232635498e-02,1.061007976531982422e-01,1.220159158110618591e-01,1.167108789086341858e-01,1.167108789086341858e-01,1.352785080671310425e-01,1.352785080671310425e-01,1.405835598707199097e-01,1.273209601640701294e-01,1.591511964797973633e-01,1.538461595773696899e-01,1.511936336755752563e-01,1.246684342622756958e-01,1.511936336755752563e-01,1.379310339689254761e-01,1.352785080671310425e-01,1.220159158110618591e-01,1.352785080671310425e-01,1.352785080671310425e-01,1.167108789086341858e-01,1.114058345556259155e-01,1.220159158110618591e-01,1.087533161044120789e-01,9.814323484897613525e-02,9.018567949533462524e-02,8.753315359354019165e-02,9.814323484897613525e-02,7.427055388689041138e-02,7.427055388689041138e-02,9.018567949533462524e-02,9.549071639776229858e-02,1.007957533001899719e-01,8.222811669111251831e-02,1.140583530068397522e-01,1.273209601640701294e-01,1.352785080671310425e-01,1.405835598707199097e-01,1.803713589906692505e-01,2.068965584039688110e-01,2.307692319154739380e-01,2.068965584039688110e-01,2.254641950130462646e-01,2.095490694046020508e-01,1.883289068937301636e-01,1.724137961864471436e-01,1.326259970664978027e-01,1.114058345556259155e-01,8.753315359354019165e-02,6.366048008203506470e-02,7.957559823989868164e-02,8.222811669111251831e-02,7.692307978868484497e-02,5.039787665009498596e-02,2.652519848197698593e-03,0.000000000000000000e+00,2.413793057203292847e-01,5.755968093872070312e-01,8.912466764450073242e-01,1.000000000000000000e+00,9.389920234680175781e-01,7.029177546501159668e-01,2.334217578172683716e-01,8.222811669111251831e-02,1.485411077737808228e-01,9.283819794654846191e-02,5.039787665009498596e-02,3.448275849223136902e-02,3.183024004101753235e-02,2.917771972715854645e-02,3.713527694344520569e-02,4.509283974766731262e-02,3.978779911994934082e-02,3.713527694344520569e-02,4.774535819888114929e-02,0.000000000000000000e+00,0.000000000000000000e+00,0.000000000000000000e+00,0.000000000000000000e+00,0.000000000000000000e+00,0.000000000000000000e+00,0.000000000000000000e+00,0.000000000000000000e+00,0.000000000000000000e+00,0.000000000000000000e+00,0.000000000000000000e+00,0.000000000000000000e+00,0.000000000000000000e+00,0.000000000000000000e+00,0.000000000000000000e+00,0.000000000000000000e+00,0.000000000000000000e+00,0.000000000000000000e+00,0.000000000000000000e+00,0.000000000000000000e+00,0.000000000000000000e+00,0.000000000000000000e+00,0.000000000000000000e+00,0.000000000000000000e+00,0.000000000000000000e+00,0.000000000000000000e+00,0.000000000000000000e+00,0.000000000000000000e+00,0.000000000000000000e+00,0.000000000000000000e+00,0.000000000000000000e+00,0.000000000000000000e+00,0.000000000000000000e+00,0.000000000000000000e+00,0.000000000000000000e+00,0.000000000000000000e+00,0.000000000000000000e+00,0.000000000000000000e+00,0.000000000000000000e+00,0.000000000000000000e+00,0.000000000000000000e+00,0.000000000000000000e+00,0.000000000000000000e+00,0.000000000000000000e+00,0.000000000000000000e+00,0.000000000000000000e+00,0.000000000000000000e+00,0.000000000000000000e+00,0.000000000000000000e+00,0.000000000000000000e+00,0.000000000000000000e+00,0.000000000000000000e+00,0.000000000000000000e+00,0.000000000000000000e+00,0.000000000000000000e+00,0.000000000000000000e+00,0.000000000000000000e+00,0.000000000000000000e+00,0.000000000000000000e+00,0.000000000000000000e+00,0.000000000000000000e+00,0.000000000000000000e+00,0.000000000000000000e+00,0.000000000000000000e+00,0.000000000000000000e+00,0.000000000000000000e+00,0.000000000000000000e+00,0.000000000000000000e+00,0.000000000000000000e+00,0.000000000000000000e+00,0.000000000000000000e+00,0.000000000000000000e+00,0.000000000000000000e+00,0.000000000000000000e+00,0.000000000000000000e+00,0.000000000000000000e+00,0.000000000000000000e+00,0.000000000000000000e+00,0.000000000000000000e+00,0.000000000000000000e+00,0.000000000000000000e+00,0.000000000000000000e+00,0.000000000000000000e+00,0.000000000000000000e+00,0.000000000000000000e+00,0.000000000000000000e+00,0.000000000000000000e+00,0.000000000000000000e+00,0.000000000000000000e+00,0.000000000000000000e+00
1.000000000000000000e+00,9.126505851745605469e-01,5.933734774589538574e-01,4.518072307109832764e-02,3.614457696676254272e-02,1.777108460664749146e-01,3.162650465965270996e-01,3.433735072612762451e-01,3.765060305595397949e-01,3.734939694404602051e-01,4.096385538578033447e-01,4.036144614219665527e-01,4.307228922843933105e-01,4.277108311653137207e-01,4.487951695919036865e-01,4.608433842658996582e-01,4.879518151283264160e-01,4.879518151283264160e-01,5.391566157341003418e-01,5.391566157341003418e-01,5.843373537063598633e-01,5.873494148254394531e-01,6.204819083213806152e-01,6.204819083213806152e-01,6.234939694404602051e-01,6.174699068069458008e-01,6.385542154312133789e-01,6.174699068069458008e-01,6.144578456878662109e-01,5.662650465965270996e-01,5.481927990913391113e-01,5.000000000000000000e-01,4.909638464450836182e-01,4.487951695919036865e-01,4.307228922843933105e-01,3.945783078670501709e-01,3.915662765502929688e-01,3.734939694404602051e-01,3.885542154312133789e-01,3.584337234497070312e-01,3.674698770046234131e-01,3.584337234497070312e-01,3.674698770046234131e-01,3.524096310138702393e-01,3.734939694404602051e-01,3.644578456878662109e-01,3.825301229953765869e-01,3.704819381237030029e-01,3.915662765502929688e-01,3.855421543121337891e-01,4.036144614219665527e-01,3.885542154312133789e-01,4.216867387294769287e-01,4.216867387294769287e-01,4.427710771560668945e-01,4.337349534034729004e-01,4.277108311653137207e-01,3.975903689861297607e-01,4.096385538578033447e-01,3.855421543121337891e-01,4.036144614219665527e-01,3.765060305595397949e-01,3.734939694404602051e-01,3.493975996971130371e-01,3.704819381237030029e-01,3.463855385780334473e-01,3.674698770046234131e-01,3.433735072612762451e-01,3.614457845687866211e-01,3.373493850231170654e-01,3.554216921329498291e-01,3.524096310138702393e-01,3.614457845687866211e-01,3.433735072612762451e-01,3.584337234497070312e-01,3.403614461421966553e-01,3.644578456878662109e-01,3.313252925872802734e-01,3.373493850231170654e-01,3.584337234497070312e-01,5.843373537063598633e-01,8.524096608161926270e-01,9.909638762474060059e-01,7.620481848716735840e-01,4.759036004543304443e-01,0.000000000000000000e+00,9.036144241690635681e-03,1.325301229953765869e-01,2.680722773075103760e-01,3.253012001514434814e-01,3.674698770046234131e-01,3.524096310138702393e-01,3.765060305595397949e-01,3.734939694404602051e-01,4.126506149768829346e-01,4.096385538578033447e-01,4.397590458393096924e-01,0.000000000000000000e+00,0.000000000000000000e+00,0.000000000000000000e+00,0.000000000000000000e+00,0.000000000000000000e+00,0.000000000000000000e+00,0.000000000000000000e+00,0.000000000000000000e+00,0.000000000000000000e+00,0.000000000000000000e+00,0.000000000000000000e+00,0.000000000000000000e+00,0.000000000000000000e+00,0.000000000000000000e+00,0.000000000000000000e+00,0.000000000000000000e+00,0.000000000000000000e+00,0.000000000000000000e+00,0.000000000000000000e+00,0.000000000000000000e+00,0.000000000000000000e+00,0.000000000000000000e+00,0.000000000000000000e+00,0.000000000000000000e+00,0.000000000000000000e+00,0.000000000000000000e+00,0.000000000000000000e+00,0.000000000000000000e+00,0.000000000000000000e+00,0.000000000000000000e+00,0.000000000000000000e+00,0.000000000000000000e+00,0.000000000000000000e+00,0.000000000000000000e+00,0.000000000000000000e+00,0.000000000000000000e+00,0.000000000000000000e+00,0.000000000000000000e+00,0.000000000000000000e+00,0.000000000000000000e+00,0.000000000000000000e+00,0.000000000000000000e+00,0.000000000000000000e+00,0.000000000000000000e+00,0.000000000000000000e+00,0.000000000000000000e+00,0.000000000000000000e+00,0.000000000000000000e+00,0.000000000000000000e+00,0.000000000000000000e+00,0.000000000000000000e+00,0.000000000000000000e+00,0.000000000000000000e+00,0.000000000000000000e+00,0.000000000000000000e+00,0.000000000000000000e+00,0.000000000000000000e+00,0.000000000000000000e+00,0.000000000000000000e+00,0.000000000000000000e+00,0.000000000000000000e+00,0.000000000000000000e+00,0.000000000000000000e+00,0.000000000000000000e+00,0.000000000000000000e+00,0.000000000000000000e+00,0.000000000000000000e+00,0.000000000000000000e+00,0.000000000000000000e+00,0.000000000000000000e+00,0.000000000000000000e+00,0.000000000000000000e+00,0.000000000000000000e+00,0.000000000000000000e+00,0.000000000000000000e+00,0.000000000000000000e+00,0.000000000000000000e+00,0.000000000000000000e+00,0.000000000000000000e+00,0.000000000000000000e+00,0.000000000000000000e+00,0.000000000000000000e+00,0.000000000000000000e+00,0.000000000000000000e+00,0.000000000000000000e+00,0.000000000000000000e+00,0.000000000000000000e+00,0.000000000000000000e+00,0.000000000000000000e+00,0.000000000000000000e+00,0.000000000000000000e+00
1.000000000000000000e+00,4.771573543548583984e-01,6.091370433568954468e-02,7.360406219959259033e-02,8.883249014616012573e-02,4.314720630645751953e-02,3.553299605846405029e-02,2.791878208518028259e-02,1.522842608392238617e-02,1.522842608392238617e-02,7.614213041961193085e-03,0.000000000000000000e+00,1.015228405594825745e-02,2.030456811189651489e-02,7.614213041961193085e-03,1.522842608392238617e-02,2.284264005720615387e-02,2.030456811189651489e-02,2.284264005720615387e-02,7.614213041961193085e-03,1.776649802923202515e-02,4.060913622379302979e-02,3.299492225050926208e-02,1.522842608392238617e-02,3.807106614112854004e-02,5.329949408769607544e-02,4.314720630645751953e-02,4.314720630645751953e-02,5.583756417036056519e-02,7.868020236492156982e-02,7.360406219959259033e-02,6.852792203426361084e-02,8.375634253025054932e-02,9.644670039415359497e-02,1.040609106421470642e-01,1.040609106421470642e-01,1.243654787540435791e-01,1.345177590847015381e-01,1.446700543165206909e-01,1.573604047298431396e-01,1.649746149778366089e-01,1.878172606229782104e-01,2.055837512016296387e-01,2.131979763507843018e-01,2.208121865987777710e-01,2.258883267641067505e-01,2.436548173427581787e-01,2.639593780040740967e-01,2.588832378387451172e-01,2.791878283023834229e-01,2.715736031532287598e-01,2.411167472600936890e-01,2.411167472600936890e-01,2.360406070947647095e-01,1.928934007883071899e-01,1.751269102096557617e-01,1.649746149778366089e-01,1.522842645645141602e-01,1.294416189193725586e-01,1.065989881753921509e-01,1.015228405594825745e-01,9.644670039415359497e-02,9.137056022882461548e-02,8.121827244758605957e-02,8.121827244758605957e-02,8.121827244758605957e-02,7.360406219959259033e-02,7.868020236492156982e-02,7.614213228225708008e-02,7.614213228225708008e-02,7.360406219959259033e-02,7.868020236492156982e-02,7.614213228225708008e-02,9.137056022882461548e-02,8.883249014616012573e-02,6.598984450101852417e-02,6.091370433568954468e-02,8.629441261291503906e-02,8.121827244758605957e-02,7.106599211692810059e-02,1.015228405594825745e-01,1.142131984233856201e-01,1.243654787540435791e-01,1.192893385887145996e-01,1.421319842338562012e-01,1.446700543165206909e-01,1.218274086713790894e-01,9.390863031148910522e-02,8.121827244758605957e-02,5.837563425302505493e-02,2.791878208518028259e-02,1.776649802923202515e-02,2.538071013987064362e-02,2.791878208518028259e-02,2.284264005720615387e-02,1.776649802923202515e-02,2.538071013987064362e-02,1.776649802923202515e-02,2.284264005720615387e-02,1.015228405594825745e-02,1.776649802923202515e-02,2.791878208518028259e-02,2.030456811189651489e-02,1.015228405594825745e-02,1.522842608392238617e-02,2.030456811189651489e-02,2.538071013987064362e-02,1.015228405594825745e-02,1.015228405594825745e-02,0.000000000000000000e+00,0.000000000000000000e+00,0.000000000000000000e+00,0.000000000000000000e+00,0.000000000000000000e+00,0.000000000000000000e+00,0.000000000000000000e+00,0.000000000000000000e+00,0.000000000000000000e+00,0.000000000000000000e+00,0.000000000000000000e+00,0.000000000000000000e+00,0.000000000000000000e+00,0.000000000000000000e+00,0.000000000000000000e+00,0.000000000000000000e+00,0.000000000000000000e+00,0.000000000000000000e+00,0.000000000000000000e+00,0.000000000000000000e+00,0.000000000000000000e+00,0.000000000000000000e+00,0.000000000000000000e+00,0.000000000000000000e+00,0.000000000000000000e+00,0.000000000000000000e+00,0.000000000000000000e+00,0.000000000000000000e+00,0.000000000000000000e+00,0.000000000000000000e+00,0.000000000000000000e+00,0.000000000000000000e+00,0.000000000000000000e+00,0.000000000000000000e+00,0.000000000000000000e+00,0.000000000000000000e+00,0.000000000000000000e+00,0.000000000000000000e+00,0.000000000000000000e+00,0.000000000000000000e+00,0.000000000000000000e+00,0.000000000000000000e+00,0.000000000000000000e+00,0.000000000000000000e+00,0.000000000000000000e+00,0.000000000000000000e+00,0.000000000000000000e+00,0.000000000000000000e+00,0.000000000000000000e+00,0.000000000000000000e+00,0.000000000000000000e+00,0.000000000000000000e+00,0.000000000000000000e+00,0.000000000000000000e+00,0.000000000000000000e+00,0.000000000000000000e+00,0.000000000000000000e+00,0.000000000000000000e+00,0.000000000000000000e+00,0.000000000000000000e+00,0.000000000000000000e+00,0.000000000000000000e+00,0.000000000000000000e+00,0.000000000000000000e+00,0.000000000000000000e+00,0.000000000000000000e+00,0.000000000000000000e+00,0.000000000000000000e+00,0.000000000000000000e+00,0.000000000000000000e+00,0.000000000000000000e+00,0.000000000000000000e+00,0.000000000000000000e+00,0.000000000000000000e+00,0.000000000000000000e+00,0.000000000000000000e+00,0.000000000000000000e+00,0.000000000000000000e+00,0.000000000000000000e+00
9.856321811676025391e-01,7.859195470809936523e-01,3.591954112052917480e-01,9.626436978578567505e-02,4.310344904661178589e-02,1.451149433851242065e-01,1.968390792608261108e-01,1.752873510122299194e-01,1.566091924905776978e-01,1.594827622175216675e-01,1.724137961864471436e-01,1.551724076271057129e-01,1.465517282485961914e-01,1.609195470809936523e-01,1.709770113229751587e-01,1.752873510122299194e-01,1.724137961864471436e-01,1.925287395715713501e-01,2.155172377824783325e-01,2.284482717514038086e-01,2.485632151365280151e-01,2.744252979755401611e-01,2.916666567325592041e-01,3.160919547080993652e-01,3.433907926082611084e-01,3.649425208568572998e-01,3.951149284839630127e-01,4.109195470809936523e-01,4.295977056026458740e-01,4.511494338512420654e-01,4.497126340866088867e-01,4.468390941619873047e-01,4.310344755649566650e-01,4.181034564971923828e-01,4.037356376647949219e-01,3.692528605461120605e-01,3.477011620998382568e-01,3.376436829566955566e-01,3.089080452919006348e-01,2.787356376647949219e-01,2.715517282485961914e-01,2.514367699623107910e-01,2.399425357580184937e-01,2.327586263418197632e-01,2.241379320621490479e-01,2.385057508945465088e-01,2.385057508945465088e-01,2.327586263418197632e-01,2.399425357580184937e-01,2.370689660310745239e-01,2.643678188323974609e-01,2.902298867702484131e-01,2.974137961864471436e-01,3.189655244350433350e-01,3.290229737758636475e-01,2.959770262241363525e-01,2.514367699623107910e-01,2.284482717514038086e-01,2.255747169256210327e-01,2.183908075094223022e-01,2.140804529190063477e-01,2.255747169256210327e-01,2.284482717514038086e-01,2.183908075094223022e-01,2.284482717514038086e-01,2.212643623352050781e-01,2.040229886770248413e-01,3.477011620998382568e-01,7.054597735404968262e-01,1.000000000000000000e+00,8.663793206214904785e-01,4.928160905838012695e-01,1.479885131120681763e-01,0.000000000000000000e+00,9.339080750942230225e-02,1.537356376647949219e-01,1.264367848634719849e-01,1.149425283074378967e-01,1.163793131709098816e-01,1.005747094750404358e-01,9.913793206214904785e-02,1.005747094750404358e-01,9.770114719867706299e-02,0.000000000000000000e+00,0.000000000000000000e+00,0.000000000000000000e+00,0.000000000000000000e+00,0.000000000000000000e+00,0.000000000000000000e+00,0.000000000000000000e+00,0.000000000000000000e+00,0.000000000000000000e+00,0.000000000000000000e+00,0.000000000000000000e+00,0.000000000000000000e+00,0.000000000000000000e+00,0.000000000000000000e+00,0.000000000000000000e+00,0.000000000000000000e+00,0.000000000000000000e+00,0.000000000000000000e+00,0.000000000000000000e+00,0.000000000000000000e+00,0.000000000000000000e+00,0.000000000000000000e+00,0.000000000000000000e+00,0.000000000000000000e+00,0.000000000000000000e+00,0.000000000000000000e+00,0.000000000000000000e+00,0.000000000000000000e+00,0.000000000000000000e+00,0.000000000000000000e+00,0.000000000000000000e+00,0.000000000000000000e+00,0.000000000000000000e+00,0.000000000000000000e+00,0.000000000000000000e+00,0.000000000000000000e+00,0.000000000000000000e+00,0.000000000000000000e+00,0.000000000000000000e+00,0.000000000000000000e+00,0.000000000000000000e+00,0.000000000000000000e+00,0.000000000000000000e+00,0.000000000000000000e+00,0.000000000000000000e+00,0.000000000000000000e+00,0.000000000000000000e+00,0.000000000000000000e+00,0.000000000000000000e+00,0.000000000000000000e+00,0.000000000000000000e+00,0.000000000000000000e+00,0.000000000000000000e+00,0.000000000000000000e+00,0.000000000000000000e+00,0.000000000000000000e+00,0.000000000000000000e+00,0.000000000000000000e+00,0.000000000000000000e+00,0.000000000000000000e+00,0.000000000000000000e+00,0.000000000000000000e+00,0.000000000000000000e+00,0.000000000000000000e+00,0.000000000000000000e+00,0.000000000000000000e+00,0.000000000000000000e+00,0.000000000000000000e+00,0.000000000000000000e+00,0.000000000000000000e+00,0.000000000000000000e+00,0.000000000000000000e+00,0.000000000000000000e+00,0.000000000000000000e+00,0.000000000000000000e+00,0.000000000000000000e+00,0.000000000000000000e+00,0.000000000000000000e+00,0.000000000000000000e+00,0.000000000000000000e+00,0.000000000000000000e+00,0.000000000000000000e+00,0.000000000000000000e+00,0.000000000000000000e+00,0.000000000000000000e+00,0.000000000000000000e+00,0.000000000000000000e+00,0.000000000000000000e+00,0.000000000000000000e+00,0.000000000000000000e+00,0.000000000000000000e+00,0.000000000000000000e+00,0.000000000000000000e+00,0.000000000000000000e+00,0.000000000000000000e+00,0.000000000000000000e+00,0.000000000000000000e+00,0.000000000000000000e+00,0.000000000000000000e+00,0.000000000000000000e+00,0.000000000000000000e+00,0.000000000000000000e+00,0.000000000000000000e+00,0.000000000000000000e+00,0.000000000000000000e+00
1.000000000000000000e+00,8.727272748947143555e-01,3.584415614604949951e-01,5.714285746216773987e-02,6.493506580591201782e-02,9.090909361839294434e-02,6.493506580591201782e-02,4.935064911842346191e-02,6.233766302466392517e-02,4.415584355592727661e-02,4.935064911842346191e-02,5.194805189967155457e-02,5.714285746216773987e-02,5.454545468091964722e-02,5.974026024341583252e-02,6.233766302466392517e-02,6.233766302466392517e-02,5.714285746216773987e-02,7.532467693090438843e-02,7.532467693090438843e-02,7.272727042436599731e-02,6.753246486186981201e-02,8.311688154935836792e-02,8.831168711185455322e-02,1.012987047433853149e-01,9.350649267435073853e-02,9.610389918088912964e-02,1.090909093618392944e-01,1.012987047433853149e-01,9.870129823684692383e-02,1.038961037993431091e-01,1.168831139802932739e-01,1.116883084177970886e-01,1.298701316118240356e-01,1.376623362302780151e-01,1.454545408487319946e-01,1.454545408487319946e-01,1.402597427368164062e-01,1.350649297237396240e-01,1.324675381183624268e-01,1.272727251052856445e-01,1.220779195427894592e-01,1.246753260493278503e-01,1.246753260493278503e-01,1.350649297237396240e-01,1.090909093618392944e-01,1.194805204868316650e-01,1.376623362302780151e-01,1.194805204868316650e-01,1.298701316118240356e-01,1.272727251052856445e-01,1.402597427368164062e-01,1.298701316118240356e-01,1.246753260493278503e-01,1.272727251052856445e-01,1.402597427368164062e-01,1.220779195427894592e-01,1.246753260493278503e-01,1.194805204868316650e-01,1.298701316118240356e-01,1.194805204868316650e-01,1.194805204868316650e-01,1.350649297237396240e-01,1.558441519737243652e-01,1.584415584802627563e-01,1.688311696052551270e-01,1.922077983617782593e-01,1.974025964736938477e-01,1.870129853487014771e-01,1.688311696052551270e-01,1.662337630987167358e-01,1.376623362302780151e-01,1.116883084177970886e-01,7.532467693090438843e-02,7.272727042436599731e-02,7.272727042436599731e-02,7.272727042436599731e-02,5.714285746216773987e-02,7.272727042436599731e-02,6.493506580591201782e-02,5.714285746216773987e-02,1.506493538618087769e-01,3.922078013420104980e-01,7.584415674209594727e-01,9.558441638946533203e-01,6.831169128417968750e-01,2.493506520986557007e-01,3.636363521218299866e-02,5.194805189967155457e-02,5.194805189967155457e-02,1.558441575616598129e-02,1.818181760609149933e-02,1.298701297491788864e-02,5.194805096834897995e-03,0.000000000000000000e+00,1.298701297491788864e-02,1.038961019366979599e-02,5.194805096834897995e-03,5.194805096834897995e-03,2.077922038733959198e-02,0.000000000000000000e+00,0.000000000000000000e+00,0.000000000000000000e+00,0.000000000000000000e+00,0.000000000000000000e+00,0.000000000000000000e+00,0.000000000000000000e+00,0.000000000000000000e+00,0.000000000000000000e+00,0.000000000000000000e+00,0.000000000000000000e+00,0.000000000000000000e+00,0.000000000000000000e+00,0.000000000000000000e+00,0.000000000000000000e+00,0.000000000000000000e+00,0.000000000000000000e+00,0.000000000000000000e+00,0.000000000000000000e+00,0.000000000000000000e+00,0.000000000000000000e+00,0.000000000000000000e+00,0.000000000000000000e+00,0.000000000000000000e+00,0.000000000000000000e+00,0.000000000000000000e+00,0.000000000000000000e+00,0.000000000000000000e+00,0.000000000000000000e+00,0.000000000000000000e+00,0.000000000000000000e+00,0.000000000000000000e+00,0.000000000000000000e+00,0.000000000000000000e+00,0.000000000000000000e+00,0.000000000000000000e+00,0.000000000000000000e+00,0.000000000000000000e+00,0.000000000000000000e+00,0.000000000000000000e+00,0.000000000000000000e+00,0.000000000000000000e+00,0.000000000000000000e+00,0.000000000000000000e+00,0.000000000000000000e+00,0.000000000000000000e+00,0.000000000000000000e+00,0.000000000000000000e+00,0.000000000000000000e+00,0.000000000000000000e+00,0.000000000000000000e+00,0.000000000000000000e+00,0.000000000000000000e+00,0.000000000000000000e+00,0.000000000000000000e+00,0.000000000000000000e+00,0.000000000000000000e+00,0.000000000000000000e+00,0.000000000000000000e+00,0.000000000000000000e+00,0.000000000000000000e+00,0.000000000000000000e+00,0.000000000000000000e+00,0.000000000000000000e+00,0.000000000000000000e+00,0.000000000000000000e+00,0.000000000000000000e+00,0.000000000000000000e+00,0.000000000000000000e+00,0.000000000000000000e+00,0.000000000000000000e+00,0.000000000000000000e+00,0.000000000000000000e+00,0.000000000000000000e+00,0.000000000000000000e+00,0.000000000000000000e+00,0.000000000000000000e+00,0.000000000000000000e+00,0.000000000000000000e+00,0.000000000000000000e+00,0.000000000000000000e+00,0.000000000000000000e+00,0.000000000000000000e+00,0.000000000000000000e+00,0.000000000000000000e+00,0.000000000000000000e+00,0.000000000000000000e+00,0.000000000000000000e+00
9.860724210739135742e-01,5.069637894630432129e-01,3.509749174118041992e-01,2.144846767187118530e-01,1.337047368288040161e-01,9.749303758144378662e-02,8.356545865535736084e-02,9.192200750112533569e-02,7.242339849472045898e-02,7.242339849472045898e-02,7.242339849472045898e-02,7.242339849472045898e-02,6.963787972927093506e-02,7.242339849472045898e-02,6.685236841440200806e-02,7.520891726016998291e-02,6.406684964895248413e-02,7.520891726016998291e-02,7.242339849472045898e-02,8.077994734048843384e-02,6.685236841440200806e-02,7.520891726016998291e-02,6.963787972927093506e-02,8.635097742080688477e-02,8.077994734048843384e-02,8.913648873567581177e-02,9.749303758144378662e-02,1.114206165075302124e-01,1.197771579027175903e-01,1.448467969894409180e-01,1.532033383846282959e-01,1.894150376319885254e-01,1.977715939283370972e-01,2.172701954841613770e-01,2.256267368793487549e-01,2.395543158054351807e-01,2.395543158054351807e-01,2.506963908672332764e-01,2.284122556447982788e-01,2.200557142496109009e-01,1.977715939283370972e-01,1.727019548416137695e-01,1.559888571500778198e-01,1.392757594585418701e-01,1.169916465878486633e-01,1.225626766681671143e-01,1.114206165075302124e-01,1.169916465878486633e-01,1.086350977420806885e-01,1.114206165075302124e-01,1.030640676617622375e-01,1.030640676617622375e-01,8.913648873567581177e-02,9.470751881599426270e-02,8.913648873567581177e-02,9.192200750112533569e-02,9.470751881599426270e-02,1.030640676617622375e-01,9.749303758144378662e-02,1.086350977420806885e-01,1.002785488963127136e-01,1.114206165075302124e-01,1.002785488963127136e-01,1.058495789766311646e-01,1.002785488963127136e-01,1.086350977420806885e-01,1.058495789766311646e-01,1.030640676617622375e-01,9.749303758144378662e-02,1.058495789766311646e-01,1.002785488963127136e-01,1.030640676617622375e-01,9.192200750112533569e-02,1.002785488963127136e-01,9.470751881599426270e-02,9.749303758144378662e-02,9.192200750112533569e-02,9.749303758144378662e-02,9.470751881599426270e-02,1.002785488963127136e-01,9.192200750112533569e-02,1.030640676617622375e-01,9.192200750112533569e-02,9.749303758144378662e-02,8.913648873567581177e-02,9.192200750112533569e-02,9.470751881599426270e-02,9.749303758144378662e-02,9.192200750112533569e-02,1.002785488963127136e-01,9.470751881599426270e-02,9.470751881599426270e-02,9.749303758144378662e-02,1.030640676617622375e-01,1.002785488963127136e-01,1.058495789766311646e-01,1.086350977420806885e-01,1.253481954336166382e-01,1.225626766681671143e-01,1.364902555942535400e-01,1.559888571500778198e-01,1.754874587059020996e-01,1.532033383846282959e-01,1.559888571500778198e-01,1.420612782239913940e-01,1.364902555942535400e-01,1.225626766681671143e-01,1.030640676617622375e-01,8.356545865535736084e-02,8.356545865535736084e-02,7.520891726016998291e-02,8.077994734048843384e-02,7.242339849472045898e-02,7.520891726016998291e-02,8.077994734048843384e-02,6.406684964895248413e-02,0.000000000000000000e+00,1.643453985452651978e-01,6.601671576499938965e-01,1.000000000000000000e+00,5.236768722534179688e-01,3.621169924736022949e-01,1.977715939283370972e-01,1.225626766681671143e-01,6.406684964895248413e-02,5.571030825376510620e-02,3.899721428751945496e-02,5.013927444815635681e-02,3.621169924736022949e-02,4.178272932767868042e-02,3.621169924736022949e-02,4.178272932767868042e-02,3.621169924736022949e-02,3.899721428751945496e-02,3.342618420720100403e-02,4.178272932767868042e-02,3.064066916704177856e-02,4.178272932767868042e-02,4.178272932767868042e-02,4.456824436783790588e-02,4.178272932767868042e-02,5.571030825376510620e-02,4.735375940799713135e-02,0.000000000000000000e+00,0.000000000000000000e+00,0.000000000000000000e+00,0.000000000000000000e+00,0.000000000000000000e+00,0.000000000000000000e+00,0.000000000000000000e+00,0.000000000000000000e+00,0.000000000000000000e+00,0.000000000000000000e+00,0.000000000000000000e+00,0.000000000000000000e+00,0.000000000000000000e+00,0.000000000000000000e+00,0.000000000000000000e+00,0.000000000000000000e+00,0.000000000000000000e+00,0.000000000000000000e+00,0.000000000000000000e+00,0.000000000000000000e+00,0.000000000000000000e+00,0.000000000000000000e+00,0.000000000000000000e+00,0.000000000000000000e+00,0.000000000000000000e+00,0.000000000000000000e+00,0.000000000000000000e+00,0.000000000000000000e+00,0.000000000000000000e+00,0.000000000000000000e+00,0.000000000000000000e+00,0.000000000000000000e+00,0.000000000000000000e+00,0.000000000000000000e+00,0.000000000000000000e+00,0.000000000000000000e+00,0.000000000000000000e+00,0.000000000000000000e+00,0.000000000000000000e+00,0.000000000000000000e+00,0.000000000000000000e+00,0.000000000000000000e+00,0.000000000000000000e+00,0.000000000000000000e+00,0.000000000000000000e+00
1.000000000000000000e+00,9.350104928016662598e-01,6.226415038108825684e-01,2.914046049118041992e-01,2.368972748517990112e-01,2.243186533451080322e-01,1.572327017784118652e-01,1.404612213373184204e-01,1.383647769689559937e-01,1.362683475017547607e-01,1.341719031333923340e-01,1.236897259950637817e-01,1.257861703634262085e-01,1.320754736661911011e-01,1.257861703634262085e-01,1.006289273500442505e-01,1.069182381033897400e-01,1.153039857745170593e-01,1.006289273500442505e-01,7.966457307338714600e-02,6.918238848447799683e-02,6.498951464891433716e-02,4.402515664696693420e-02,1.467505283653736115e-02,0.000000000000000000e+00,4.192871972918510437e-03,2.096435986459255219e-03,0.000000000000000000e+00,2.306079678237438202e-02,5.870021134614944458e-02,9.014675021171569824e-02,1.132075488567352295e-01,1.467505246400833130e-01,1.823899298906326294e-01,2.012578547000885010e-01,2.054507285356521606e-01,2.138364762067794800e-01,2.222222238779067993e-01,2.180293500423431396e-01,2.180293500423431396e-01,2.180293500423431396e-01,2.264150977134704590e-01,2.243186533451080322e-01,2.180293500423431396e-01,2.285115271806716919e-01,2.243186533451080322e-01,2.264150977134704590e-01,2.243186533451080322e-01,2.452830225229263306e-01,2.578616440296173096e-01,2.662473917007446289e-01,2.809224426746368408e-01,3.018867969512939453e-01,3.542976975440979004e-01,3.605870008468627930e-01,3.291404545307159424e-01,3.480083942413330078e-01,3.542976975440979004e-01,3.081761002540588379e-01,2.641509473323822021e-01,2.494758963584899902e-01,2.368972748517990112e-01,2.180293500423431396e-01,2.159329205751419067e-01,2.222222238779067993e-01,2.327044010162353516e-01,2.285115271806716919e-01,2.557651996612548828e-01,4.297693967819213867e-01,7.044025063514709473e-01,9.035639166831970215e-01,9.958071112632751465e-01,8.972746133804321289e-01,5.828092098236083984e-01,2.976939082145690918e-01,2.285115271806716919e-01,2.201257795095443726e-01,1.761006265878677368e-01,1.551362723112106323e-01,1.572327017784118652e-01,1.488469541072845459e-01,1.530398279428482056e-01,1.572327017784118652e-01,1.383647769689559937e-01,1.383647769689559937e-01,0.000000000000000000e+00,0.000000000000000000e+00,0.000000000000000000e+00,0.000000000000000000e+00,0.000000000000000000e+00,0.000000000000000000e+00,0.000000000000000000e+00,0.000000000000000000e+00,0.000000000000000000e+00,0.000000000000000000e+00,0.000000000000000000e+00,0.000000000000000000e+00,0.000000000000000000e+00,0.000000000000000000e+00,0.000000000000000000e+00,0.000000000000000000e+00,0.000000000000000000e+00,0.000000000000000000e+00,0.000000000000000000e+00,0.000000000000000000e+00,0.000000000000000000e+00,0.000000000000000000e+00,0.000000000000000000e+00,0.000000000000000000e+00,0.000000000000000000e+00,0.000000000000000000e+00,0.000000000000000000e+00,0.000000000000000000e+00,0.000000000000000000e+00,0.000000000000000000e+00,0.000000000000000000e+00,0.000000000000000000e+00,0.000000000000000000e+00,0.000000000000000000e+00,0.000000000000000000e+00,0.000000000000000000e+00,0.000000000000000000e+00,0.000000000000000000e+00,0.000000000000000000e+00,0.000000000000000000e+00,0.000000000000000000e+00,0.000000000000000000e+00,0.000000000000000000e+00,0.000000000000000000e+00,0.000000000000000000e+00,0.000000000000000000e+00,0.000000000000000000e+00,0.000000000000000000e+00,0.000000000000000000e+00,0.000000000000000000e+00,0.000000000000000000e+00,0.000000000000000000e+00,0.000000000000000000e+00,0.000000000000000000e+00,0.000000000000000000e+00,0.000000000000000000e+00,0.000000000000000000e+00,0.000000000000000000e+00,0.000000000000000000e+00,0.000000000000000000e+00,0.000000000000000000e+00,0.000000000000000000e+00,0.000000000000000000e+00,0.000000000000000000e+00,0.000000000000000000e+00,0.000000000000000000e+00,0.000000000000000000e+00,0.000000000000000000e+00,0.000000000000000000e+00,0.000000000000000000e+00,0.000000000000000000e+00,0.000000000000000000e+00,0.000000000000000000e+00,0.000000000000000000e+00,0.000000000000000000e+00,0.000000000000000000e+00,0.000000000000000000e+00,0.000000000000000000e+00,0.000000000000000000e+00,0.000000000000000000e+00,0.000000000000000000e+00,0.000000000000000000e+00,0.000000000000000000e+00,0.000000000000000000e+00,0.000000000000000000e+00,0.000000000000000000e+00,0.000000000000000000e+00,0.000000000000000000e+00,0.000000000000000000e+00,0.000000000000000000e+00,0.000000000000000000e+00,0.000000000000000000e+00,0.000000000000000000e+00,0.000000000000000000e+00,0.000000000000000000e+00,0.000000000000000000e+00,0.000000000000000000e+00,0.000000000000000000e+00,0.000000000000000000e+00,0.000000000000000000e+00,0.000000000000000000e+00,0.000000000000000000e+00,0.000000000000000000e+00
9.796437621116638184e-01,9.745547175407409668e-01,7.659032940864562988e-01,3.155216276645660400e-01,7.379134744405746460e-02,1.603053361177444458e-01,1.450381726026535034e-01,6.870228797197341919e-02,1.781170442700386047e-02,3.307887911796569824e-02,3.816793859004974365e-02,4.325699806213378906e-02,3.562340885400772095e-02,4.071246832609176636e-02,5.089058354496955872e-02,4.834605753421783447e-02,3.562340885400772095e-02,3.307887911796569824e-02,2.290076389908790588e-02,4.580152779817581177e-02,3.053435124456882477e-02,2.290076389908790588e-02,4.071246832609176636e-02,4.834605753421783447e-02,5.089058354496955872e-02,3.307887911796569824e-02,6.615775823593139648e-02,6.106870248913764954e-02,6.361322849988937378e-02,5.089058354496955872e-02,9.414758533239364624e-02,8.142493665218353271e-02,9.669211506843566895e-02,9.923664480447769165e-02,1.246819347143173218e-01,1.323155164718627930e-01,1.424936354160308838e-01,1.145038157701492310e-01,1.475826948881149292e-01,1.348600536584854126e-01,1.297709941864013672e-01,1.119592860341072083e-01,1.323155164718627930e-01,1.221374049782752991e-01,1.170483455061912537e-01,9.669211506843566895e-02,1.246819347143173218e-01,1.017811670899391174e-01,9.923664480447769165e-02,7.124681770801544189e-02,8.396946638822555542e-02,8.142493665218353271e-02,9.923664480447769165e-02,8.651399612426757812e-02,1.094147562980651855e-01,1.068702265620231628e-01,9.414758533239364624e-02,9.414758533239364624e-02,1.170483455061912537e-01,1.246819347143173218e-01,1.068702265620231628e-01,1.221374049782752991e-01,1.348600536584854126e-01,1.424936354160308838e-01,1.603053361177444458e-01,1.882951706647872925e-01,2.366412281990051270e-01,2.213740497827529907e-01,2.315521687269210815e-01,2.035623341798782349e-01,2.162849903106689453e-01,1.933842301368713379e-01,1.577608138322830200e-01,1.145038157701492310e-01,1.272264569997787476e-01,1.068702265620231628e-01,1.043256968259811401e-01,8.396946638822555542e-02,1.119592860341072083e-01,9.414758533239364624e-02,8.905852586030960083e-02,0.000000000000000000e+00,1.017811708152294159e-02,1.933842301368713379e-01,5.012722611427307129e-01,7.709923386573791504e-01,9.821882843971252441e-01,1.000000000000000000e+00,8.244274854660034180e-01,3.256997466087341309e-01,1.119592860341072083e-01,1.781170517206192017e-01,1.653943955898284912e-01,7.379134744405746460e-02,6.106870248913764954e-02,5.852417275309562683e-02,5.597964301705360413e-02,4.834605753421783447e-02,7.379134744405746460e-02,6.615775823593139648e-02,6.106870248913764954e-02,5.343511328101158142e-02,6.106870248913764954e-02,6.870228797197341919e-02,0.000000000000000000e+00,0.000000000000000000e+00,0.000000000000000000e+00,0.000000000000000000e+00,0.000000000000000000e+00,0.000000000000000000e+00,0.000000000000000000e+00,0.000000000000000000e+00,0.000000000000000000e+00,0.000000000000000000e+00,0.000000000000000000e+00,0.000000000000000000e+00,0.000000000000000000e+00,0.000000000000000000e+00,0.000000000000000000e+00,0.000000000000000000e+00,0.000000000000000000e+00,0.000000000000000000e+00,0.000000000000000000e+00,0.000000000000000000e+00,0.000000000000000000e+00,0.000000000000000000e+00,0.000000000000000000e+00,0.000000000000000000e+00,0.000000000000000000e+00,0.000000000000000000e+00,0.000000000000000000e+00,0.000000000000000000e+00,0.000000000000000000e+00,0.000000000000000000e+00,0.000000000000000000e+00,0.000000000000000000e+00,0.000000000000000000e+00,0.000000000000000000e+00,0.000000000000000000e+00,0.000000000000000000e+00,0.000000000000000000e+00,0.000000000000000000e+00,0.000000000000000000e+00,0.000000000000000000e+00,0.000000000000000000e+00,0.000000000000000000e+00,0.000000000000000000e+00,0.000000000000000000e+00,0.000000000000000000e+00,0.000000000000000000e+00,0.000000000000000000e+00,0.000000000000000000e+00,0.000000000000000000e+00,0.000000000000000000e+00,0.000000000000000000e+00,0.000000000000000000e+00,0.000000000000000000e+00,0.000000000000000000e+00,0.000000000000000000e+00,0.000000000000000000e+00,0.000000000000000000e+00,0.000000000000000000e+00,0.000000000000000000e+00,0.000000000000000000e+00,0.000000000000000000e+00,0.000000000000000000e+00,0.000000000000000000e+00,0.000000000000000000e+00,0.000000000000000000e+00,0.000000000000000000e+00,0.000000000000000000e+00,0.000000000000000000e+00,0.000000000000000000e+00,0.000000000000000000e+00,0.000000000000000000e+00,0.000000000000000000e+00,0.000000000000000000e+00,0.000000000000000000e+00,0.000000000000000000e+00,0.000000000000000000e+00,0.000000000000000000e+00,0.000000000000000000e+00,0.000000000000000000e+00,0.000000000000000000e+00,0.000000000000000000e+00,0.000000000000000000e+00,0.000000000000000000e+00,0.000000000000000000e+00
9.501915574073791504e-01,7.777777910232543945e-01,3.984674215316772461e-01,0.000000000000000000e+00,0.000000000000000000e+00,1.187739446759223938e-01,1.379310339689254761e-01,2.298850566148757935e-01,2.758620679378509521e-01,2.567049860954284668e-01,2.528735697269439697e-01,2.567049860954284668e-01,2.567049860954284668e-01,2.605364024639129639e-01,2.490421384572982788e-01,2.567049860954284668e-01,2.528735697269439697e-01,2.528735697269439697e-01,2.490421384572982788e-01,2.490421384572982788e-01,2.567049860954284668e-01,2.337164729833602905e-01,2.337164729833602905e-01,2.260536402463912964e-01,2.337164729833602905e-01,2.298850566148757935e-01,2.183908075094223022e-01,2.183908075094223022e-01,2.107279747724533081e-01,2.260536402463912964e-01,2.222222238779067993e-01,2.298850566148757935e-01,2.528735697269439697e-01,2.720306515693664551e-01,2.796934843063354492e-01,3.218390941619873047e-01,3.716475069522857666e-01,4.061302542686462402e-01,4.176245331764221191e-01,4.444444477558135986e-01,4.789271950721740723e-01,4.904214441776275635e-01,4.789271950721740723e-01,4.750957787036895752e-01,4.827586114406585693e-01,4.597701132297515869e-01,4.291187822818756104e-01,4.444444477558135986e-01,4.444444477558135986e-01,4.367816150188446045e-01,4.291187822818756104e-01,4.252873659133911133e-01,4.367816150188446045e-01,4.329501986503601074e-01,4.137931168079376221e-01,4.214559495449066162e-01,4.214559495449066162e-01,4.406130313873291016e-01,4.214559495449066162e-01,4.214559495449066162e-01,4.406130313873291016e-01,4.329501986503601074e-01,4.406130313873291016e-01,4.329501986503601074e-01,4.482758641242980957e-01,4.674329459667205811e-01,4.750957787036895752e-01,4.942528605461120605e-01,5.057471394538879395e-01,5.134099721908569336e-01,5.172413587570190430e-01,5.057471394538879395e-01,5.019156932830810547e-01,4.942528605461120605e-01,4.482758641242980957e-01,4.291187822818756104e-01,4.291187822818756104e-01,4.099617004394531250e-01,3.908045887947082520e-01,3.869731724262237549e-01,3.984674215316772461e-01,3.984674215316772461e-01,3.831417560577392578e-01,3.946360051631927490e-01,4.252873659133911133e-01,4.521072804927825928e-01,5.785440802574157715e-01,8.084291219711303711e-01,1.000000000000000000e+00,7.931034564971923828e-01,4.137931168079376221e-01,2.681992389261722565e-02,1.072796955704689026e-01,2.298850566148757935e-01,2.950191497802734375e-01,3.065133988857269287e-01,3.218390941619873047e-01,3.103448152542114258e-01,2.950191497802734375e-01,3.026819825172424316e-01,3.141762316226959229e-01,3.141762316226959229e-01,2.911877334117889404e-01,2.873563170433044434e-01,2.988505661487579346e-01,0.000000000000000000e+00,0.000000000000000000e+00,0.000000000000000000e+00,0.000000000000000000e+00,0.000000000000000000e+00,0.000000000000000000e+00,0.000000000000000000e+00,0.000000000000000000e+00,0.000000000000000000e+00,0.000000000000000000e+00,0.000000000000000000e+00,0.000000000000000000e+00,0.000000000000000000e+00,0.000000000000000000e+00,0.000000000000000000e+00,0.000000000000000000e+00,0.000000000000000000e+00,0.000000000000000000e+00,0.000000000000000000e+00,0.000000000000000000e+00,0.000000000000000000e+00,0.000000000000000000e+00,0.000000000000000000e+00,0.000000000000000000e+00,0.000000000000000000e+00,0.000000000000000000e+00,0.000000000000000000e+00,0.000000000000000000e+00,0.000000000000000000e+00,0.000000000000000000e+00,0.000000000000000000e+00,0.000000000000000000e+00,0.000000000000000000e+00,0.000000000000000000e+00,0.000000000000000000e+00,0.000000000000000000e+00,0.000000000000000000e+00,0.000000000000000000e+00,0.000000000000000000e+00,0.000000000000000000e+00,0.000000000000000000e+00,0.000000000000000000e+00,0.000000000000000000e+00,0.000000000000000000e+00,0.000000000000000000e+00,0.000000000000000000e+00,0.000000000000000000e+00,0.000000000000000000e+00,0.000000000000000000e+00,0.000000000000000000e+00,0.000000000000000000e+00,0.000000000000000000e+00,0.000000000000000000e+00,0.000000000000000000e+00,0.000000000000000000e+00,0.000000000000000000e+00,0.000000000000000000e+00,0.000000000000000000e+00,0.000000000000000000e+00,0.000000000000000000e+00,0.000000000000000000e+00,0.000000000000000000e+00,0.000000000000000000e+00,0.000000000000000000e+00,0.000000000000000000e+00,0.000000000000000000e+00,0.000000000000000000e+00,0.000000000000000000e+00,0.000000000000000000e+00,0.000000000000000000e+00,0.000000000000000000e+00,0.000000000000000000e+00,0.000000000000000000e+00,0.000000000000000000e+00,0.000000000000000000e+00,0.000000000000000000e+00,0.000000000000000000e+00,0.000000000000000000e+00,0.000000000000000000e+00,0.000000000000000000e+00,0.000000000000000000e+00,0.000000000000000000e+00,0.000000000000000000e+00
1.000000000000000000e+00,9.202454090118408203e-01,6.809815764427185059e-01,4.662576615810394287e-01,2.576687037944793701e-01,1.042944788932800293e-01,8.588957041501998901e-02,1.104294508695602417e-01,1.288343518972396851e-01,9.815950691699981689e-02,1.165644153952598572e-01,1.472392678260803223e-01,1.472392678260803223e-01,1.226993873715400696e-01,1.533742398023605347e-01,1.779141128063201904e-01,1.595091968774795532e-01,1.595091968774795532e-01,1.717791408300399780e-01,1.963190138339996338e-01,1.901840418577194214e-01,1.779141128063201904e-01,1.963190138339996338e-01,2.208589017391204834e-01,2.147239297628402710e-01,2.147239297628402710e-01,2.331288307905197144e-01,2.453987747430801392e-01,2.576687037944793701e-01,2.331288307905197144e-01,2.699386477470397949e-01,3.006134927272796631e-01,2.944785356521606445e-01,2.760736048221588135e-01,2.944785356521606445e-01,2.944785356521606445e-01,2.699386477470397949e-01,2.208589017391204834e-01,2.269938588142395020e-01,2.147239297628402710e-01,1.779141128063201904e-01,1.226993873715400696e-01,1.226993873715400696e-01,1.226993873715400696e-01,9.815950691699981689e-02,5.521472543478012085e-02,5.521472543478012085e-02,7.975459843873977661e-02,7.975459843873977661e-02,5.521472543478012085e-02,6.134969368577003479e-02,8.588957041501998901e-02,5.521472543478012085e-02,3.680981695652008057e-02,2.453987672924995422e-02,3.680981695652008057e-02,2.453987672924995422e-02,0.000000000000000000e+00,1.840490847826004028e-02,3.680981695652008057e-02,1.226993836462497711e-02,1.226993836462497711e-02,3.067484684288501740e-02,4.294478520750999451e-02,2.453987672924995422e-02,6.134969182312488556e-03,1.226993836462497711e-02,3.680981695652008057e-02,3.067484684288501740e-02,1.840490847826004028e-02,3.680981695652008057e-02,5.521472543478012085e-02,3.680981695652008057e-02,3.680981695652008057e-02,4.294478520750999451e-02,6.748466193675994873e-02,5.521472543478012085e-02,3.680981695652008057e-02,3.680981695652008057e-02,7.975459843873977661e-02,6.134969368577003479e-02,4.294478520750999451e-02,7.361963391304016113e-02,9.202454239130020142e-02,6.748466193675994873e-02,3.680981695652008057e-02,4.907975345849990845e-02,7.975459843873977661e-02,6.134969368577003479e-02,4.907975345849990845e-02,6.134969368577003479e-02,7.975459843873977661e-02,6.134969368577003479e-02,4.294478520750999451e-02,4.907975345849990845e-02,8.588957041501998901e-02,6.748466193675994873e-02,5.521472543478012085e-02,6.748466193675994873e-02,7.975459843873977661e-02,6.748466193675994873e-02,3.680981695652008057e-02,7.975459843873977661e-02,1.042944788932800293e-01,1.288343518972396851e-01,1.411042958498001099e-01,1.349693238735198975e-01,1.656441688537597656e-01,1.595091968774795532e-01,1.349693238735198975e-01,1.595091968774795532e-01,1.656441688537597656e-01,1.165644153952598572e-01,9.202454239130020142e-02,7.975459843873977661e-02,9.815950691699981689e-02,6.134969368577003479e-02,6.134969368577003479e-02,8.588957041501998901e-02,1.104294508695602417e-01,1.349693238735198975e-01,2.331288307905197144e-01,5.398772954940795898e-01,8.036809563636779785e-01,8.588957190513610840e-01,9.509202241897583008e-01,8.957055211067199707e-01,6.380367875099182129e-01,3.374233245849609375e-01,1.411042958498001099e-01,8.588957041501998901e-02,1.288343518972396851e-01,1.349693238735198975e-01,1.226993873715400696e-01,1.288343518972396851e-01,1.717791408300399780e-01,1.472392678260803223e-01,1.349693238735198975e-01,1.595091968774795532e-01,1.840490847826004028e-01,1.963190138339996338e-01,1.840490847826004028e-01,2.024539858102798462e-01,2.392638027667999268e-01,2.208589017391204834e-01,1.901840418577194214e-01,2.085889577865600586e-01,2.515337467193603516e-01,2.392638027667999268e-01,2.147239297628402710e-01,0.000000000000000000e+00,0.000000000000000000e+00,0.000000000000000000e+00,0.000000000000000000e+00,0.000000000000000000e+00,0.000000000000000000e+00,0.000000000000000000e+00,0.000000000000000000e+00,0.000000000000000000e+00,0.000000000000000000e+00,0.000000000000000000e+00,0.000000000000000000e+00,0.000000000000000000e+00,0.000000000000000000e+00,0.000000000000000000e+00,0.000000000000000000e+00,0.000000000000000000e+00,0.000000000000000000e+00,0.000000000000000000e+00,0.000000000000000000e+00,0.000000000000000000e+00,0.000000000000000000e+00,0.000000000000000000e+00,0.000000000000000000e+00,0.000000000000000000e+00,0.000000000000000000e+00,0.000000000000000000e+00,0.000000000000000000e+00,0.000000000000000000e+00,0.000000000000000000e+00,0.000000000000000000e+00,0.000000000000000000e+00,0.000000000000000000e+00,0.000000000000000000e+00,0.000000000000000000e+00,0.000000000000000000e+00,0.000000000000000000e+00,0.000000000000000000e+00
8.137536048889160156e-01,7.191976904869079590e-01,3.982807993888854980e-01,0.000000000000000000e+00,9.742120653390884399e-02,2.378223538398742676e-01,3.037249147891998291e-01,3.409742116928100586e-01,3.295128941535949707e-01,3.638968467712402344e-01,3.524355292320251465e-01,3.896848261356353760e-01,3.782235085964202881e-01,4.212034344673156738e-01,4.183381199836730957e-01,4.469914138317108154e-01,4.469914138317108154e-01,5.071633458137512207e-01,5.186246633529663086e-01,5.444126129150390625e-01,5.300859808921813965e-01,5.558739304542541504e-01,5.358166098594665527e-01,5.501432418823242188e-01,5.272206068038940430e-01,5.157592892646789551e-01,4.584527313709259033e-01,4.412607550621032715e-01,3.896848261356353760e-01,3.868194818496704102e-01,3.467048704624176025e-01,3.667621910572052002e-01,3.524355292320251465e-01,3.524355292320251465e-01,3.381088972091674805e-01,3.381088972091674805e-01,3.295128941535949707e-01,3.524355292320251465e-01,3.438395559787750244e-01,3.638968467712402344e-01,3.524355292320251465e-01,4.011461436748504639e-01,3.925501406192779541e-01,3.954154849052429199e-01,3.696275055408477783e-01,3.896848261356353760e-01,3.524355292320251465e-01,3.610315322875976562e-01,3.381088972091674805e-01,3.610315322875976562e-01,3.409742116928100586e-01,3.638968467712402344e-01,3.495702147483825684e-01,3.553008735179901123e-01,3.581661880016326904e-01,3.495702147483825684e-01,3.323782086372375488e-01,3.896848261356353760e-01,3.409742116928100586e-01,3.295128941535949707e-01,3.295128941535949707e-01,3.638968467712402344e-01,5.644699335098266602e-01,8.567335009574890137e-01,1.000000000000000000e+00,8.452721834182739258e-01,4.040114581584930420e-01,7.449856400489807129e-02,1.232091709971427917e-01,2.893982827663421631e-01,3.209168910980224609e-01,2.979942560195922852e-01,3.409742116928100586e-01,3.724928498268127441e-01,3.810888230800628662e-01,4.068768024444580078e-01,3.925501406192779541e-01,0.000000000000000000e+00,0.000000000000000000e+00,0.000000000000000000e+00,0.000000000000000000e+00,0.000000000000000000e+00,0.000000000000000000e+00,0.000000000000000000e+00,0.000000000000000000e+00,0.000000000000000000e+00,0.000000000000000000e+00,0.000000000000000000e+00,0.000000000000000000e+00,0.000000000000000000e+00,0.000000000000000000e+00,0.000000000000000000e+00,0.000000000000000000e+00,0.000000000000000000e+00,0.000000000000000000e+00,0.000000000000000000e+00,0.000000000000000000e+00,0.000000000000000000e+00,0.000000000000000000e+00,0.000000000000000000e+00,0.000000000000000000e+00,0.000000000000000000e+00,0.000000000000000000e+00,0.000000000000000000e+00,0.000000000000000000e+00,0.000000000000000000e+00,0.000000000000000000e+00,0.000000000000000000e+00,0.000000000000000000e+00,0.000000000000000000e+00,0.000000000000000000e+00,0.000000000000000000e+00,0.000000000000000000e+00,0.000000000000000000e+00,0.000000000000000000e+00,0.000000000000000000e+00,0.000000000000000000e+00,0.000000000000000000e+00,0.000000000000000000e+00,0.000000000000000000e+00,0.000000000000000000e+00,0.000000000000000000e+00,0.000000000000000000e+00,0.000000000000000000e+00,0.000000000000000000e+00,0.000000000000000000e+00,0.000000000000000000e+00,0.000000000000000000e+00,0.000000000000000000e+00,0.000000000000000000e+00,0.000000000000000000e+00,0.000000000000000000e+00,0.000000000000000000e+00,0.000000000000000000e+00,0.000000000000000000e+00,0.000000000000000000e+00,0.000000000000000000e+00,0.000000000000000000e+00,0.000000000000000000e+00,0.000000000000000000e+00,0.000000000000000000e+00,0.000000000000000000e+00,0.000000000000000000e+00,0.000000000000000000e+00,0.000000000000000000e+00,0.000000000000000000e+00,0.000000000000000000e+00,0.000000000000000000e+00,0.000000000000000000e+00,0.000000000000000000e+00,0.000000000000000000e+00,0.000000000000000000e+00,0.000000000000000000e+00,0.000000000000000000e+00,0.000000000000000000e+00,0.000000000000000000e+00,0.000000000000000000e+00,0.000000000000000000e+00,0.000000000000000000e+00,0.000000000000000000e+00,0.000000000000000000e+00,0.000000000000000000e+00,0.000000000000000000e+00,0.000000000000000000e+00,0.000000000000000000e+00,0.000000000000000000e+00,0.000000000000000000e+00,0.000000000000000000e+00,0.000000000000000000e+00,0.000000000000000000e+00,0.000000000000000000e+00,0.000000000000000000e+00,0.000000000000000000e+00,0.000000000000000000e+00,0.000000000000000000e+00,0.000000000000000000e+00,0.000000000000000000e+00,0.000000000000000000e+00,0.000000000000000000e+00,0.000000000000000000e+00,0.000000000000000000e+00,0.000000000000000000e+00,0.000000000000000000e+00,0.000000000000000000e+00,0.000000000000000000e+00,0.000000000000000000e+00,0.000000000000000000e+00,0.000000000000000000e+00
9.971181750297546387e-01,7.867435216903686523e-01,7.204610854387283325e-02,9.221901744604110718e-02,8.357349038124084473e-02,8.933717757463455200e-02,6.916426867246627808e-02,8.357349038124084473e-02,7.204610854387283325e-02,8.357349038124084473e-02,7.204610854387283325e-02,8.069164305925369263e-02,6.340057402849197388e-02,7.204610854387283325e-02,6.628242135047912598e-02,7.492795586585998535e-02,6.916426867246627808e-02,7.492795586585998535e-02,6.916426867246627808e-02,7.204610854387283325e-02,6.340057402849197388e-02,7.204610854387283325e-02,6.340057402849197388e-02,6.916426867246627808e-02,6.628242135047912598e-02,7.492795586585998535e-02,6.628242135047912598e-02,7.780979573726654053e-02,6.628242135047912598e-02,7.492795586585998535e-02,4.899135604500770569e-02,6.628242135047912598e-02,6.051873043179512024e-02,7.204610854387283325e-02,6.916426867246627808e-02,9.510086476802825928e-02,9.510086476802825928e-02,1.296830028295516968e-01,1.354466825723648071e-01,1.469740569591522217e-01,1.383285373449325562e-01,1.527377516031265259e-01,1.469740569591522217e-01,1.498559117317199707e-01,1.498559117317199707e-01,1.613832861185073853e-01,1.527377516031265259e-01,1.585014462471008301e-01,1.325648427009582520e-01,1.469740569591522217e-01,1.383285373449325562e-01,1.325648427009582520e-01,1.354466825723648071e-01,1.325648427009582520e-01,1.239193081855773926e-01,1.354466825723648071e-01,1.268011480569839478e-01,1.325648427009582520e-01,1.123919337987899780e-01,1.181556209921836853e-01,1.123919337987899780e-01,1.268011480569839478e-01,1.181556209921836853e-01,1.239193081855773926e-01,1.210374608635902405e-01,1.268011480569839478e-01,1.239193081855773926e-01,1.296830028295516968e-01,1.210374608635902405e-01,1.296830028295516968e-01,1.268011480569839478e-01,1.383285373449325562e-01,1.498559117317199707e-01,1.757925003767013550e-01,1.757925003767013550e-01,1.988472640514373779e-01,1.930835694074630737e-01,2.074927985668182373e-01,1.902017295360565186e-01,1.786743551492691040e-01,1.729106605052947998e-01,1.988472640514373779e-01,1.786743551492691040e-01,1.527377516031265259e-01,1.296830028295516968e-01,1.354466825723648071e-01,1.268011480569839478e-01,1.268011480569839478e-01,1.123919337987899780e-01,1.152737736701965332e-01,1.210374608635902405e-01,1.239193081855773926e-01,5.187319964170455933e-02,0.000000000000000000e+00,1.296830028295516968e-01,4.956772327423095703e-01,9.394812583923339844e-01,1.000000000000000000e+00,3.371757864952087402e-01,6.916426867246627808e-02,1.152737736701965332e-01,1.095100864768028259e-01,9.510086476802825928e-02,1.008645519614219666e-01,9.221901744604110718e-02,1.037463992834091187e-01,9.510086476802825928e-02,1.037463992834091187e-01,9.221901744604110718e-02,9.798271209001541138e-02,8.357349038124084473e-02,9.510086476802825928e-02,9.221901744604110718e-02,1.037463992834091187e-01,9.510086476802825928e-02,0.000000000000000000e+00,0.000000000000000000e+00,0.000000000000000000e+00,0.000000000000000000e+00,0.000000000000000000e+00,0.000000000000000000e+00,0.000000000000000000e+00,0.000000000000000000e+00,0.000000000000000000e+00,0.000000000000000000e+00,0.000000000000000000e+00,0.000000000000000000e+00,0.000000000000000000e+00,0.000000000000000000e+00,0.000000000000000000e+00,0.000000000000000000e+00,0.000000000000000000e+00,0.000000000000000000e+00,0.000000000000000000e+00,0.000000000000000000e+00,0.000000000000000000e+00,0.000000000000000000e+00,0.000000000000000000e+00,0.000000000000000000e+00,0.000000000000000000e+00,0.000000000000000000e+00,0.000000000000000000e+00,0.000000000000000000e+00,0.000000000000000000e+00,0.000000000000000000e+00,0.000000000000000000e+00,0.000000000000000000e+00,0.000000000000000000e+00,0.000000000000000000e+00,0.000000000000000000e+00,0.000000000000000000e+00,0.000000000000000000e+00,0.000000000000000000e+00,0.000000000000000000e+00,0.000000000000000000e+00,0.000000000000000000e+00,0.000000000000000000e+00,0.000000000000000000e+00,0.000000000000000000e+00,0.000000000000000000e+00,0.000000000000000000e+00,0.000000000000000000e+00,0.000000000000000000e+00,0.000000000000000000e+00,0.000000000000000000e+00,0.000000000000000000e+00,0.000000000000000000e+00,0.000000000000000000e+00,0.000000000000000000e+00,0.000000000000000000e+00,0.000000000000000000e+00,0.000000000000000000e+00,0.000000000000000000e+00,0.000000000000000000e+00,0.000000000000000000e+00,0.000000000000000000e+00,0.000000000000000000e+00,0.000000000000000000e+00,0.000000000000000000e+00,0.000000000000000000e+00,0.000000000000000000e+00,0.000000000000000000e+00,0.000000000000000000e+00,0.000000000000000000e+00,0.000000000000000000e+00,0.000000000000000000e+00,0.000000000000000000e+00,0.000000000000000000e+00
1.000000000000000000e+00,5.363408327102661133e-01,0.000000000000000000e+00,6.265664100646972656e-02,6.265664100646972656e-02,6.516290456056594849e-02,4.511278122663497925e-02,4.761904850602149963e-02,4.761904850602149963e-02,4.761904850602149963e-02,5.764411017298698425e-02,6.766917556524276733e-02,6.516290456056594849e-02,7.268170267343521118e-02,7.268170267343521118e-02,8.771929889917373657e-02,8.020050078630447388e-02,1.002506241202354431e-01,1.002506241202354431e-01,1.052631586790084839e-01,1.228070184588432312e-01,1.453634053468704224e-01,1.403508782386779785e-01,1.604010015726089478e-01,1.629072725772857666e-01,1.704260706901550293e-01,1.804511249065399170e-01,2.005012482404708862e-01,1.854636520147323608e-01,1.804511249065399170e-01,1.578947305679321289e-01,1.278195530176162720e-01,1.002506241202354431e-01,9.774436056613922119e-02,7.268170267343521118e-02,6.265664100646972656e-02,5.012531206011772156e-02,6.015037745237350464e-02,4.511278122663497925e-02,6.516290456056594849e-02,5.012531206011772156e-02,6.015037745237350464e-02,6.516290456056594849e-02,6.766917556524276733e-02,6.265664100646972656e-02,7.268170267343521118e-02,7.268170267343521118e-02,7.268170267343521118e-02,7.017543911933898926e-02,9.022556245326995850e-02,7.017543911933898926e-02,7.518796622753143311e-02,8.270676434040069580e-02,7.017543911933898926e-02,7.268170267343521118e-02,7.769423723220825195e-02,5.513784289360046387e-02,7.268170267343521118e-02,7.268170267343521118e-02,7.769423723220825195e-02,9.523809701204299927e-02,1.278195530176162720e-01,1.328320801258087158e-01,1.779448688030242920e-01,2.030075192451477051e-01,2.005012482404708862e-01,1.729323267936706543e-01,1.303258091211318970e-01,8.020050078630447388e-02,6.265664100646972656e-02,5.513784289360046387e-02,5.764411017298698425e-02,3.007518872618675232e-02,4.260651767253875732e-02,3.258145228028297424e-02,4.260651767253875732e-02,5.263157933950424194e-02,7.518796622753143311e-02,1.177944839000701904e-01,3.533834517002105713e-01,7.744361162185668945e-01,9.624060392379760742e-01,3.583959937095642090e-01,4.260651767253875732e-02,6.516290456056594849e-02,8.521303534507751465e-02,8.270676434040069580e-02,8.270676434040069580e-02,6.766917556524276733e-02,8.521303534507751465e-02,7.268170267343521118e-02,8.771929889917373657e-02,8.771929889917373657e-02,1.002506241202354431e-01,9.774436056613922119e-02,1.152882203459739685e-01,1.177944839000701904e-01,1.253132820129394531e-01,0.000000000000000000e+00,0.000000000000000000e+00,0.000000000000000000e+00,0.000000000000000000e+00,0.000000000000000000e+00,0.000000000000000000e+00,0.000000000000000000e+00,0.000000000000000000e+00,0.000000000000000000e+00,0.000000000000000000e+00,0.000000000000000000e+00,0.000000000000000000e+00,0.000000000000000000e+00,0.000000000000000000e+00,0.000000000000000000e+00,0.000000000000000000e+00,0.000000000000000000e+00,0.000000000000000000e+00,0.000000000000000000e+00,0.000000000000000000e+00,0.000000000000000000e+00,0.000000000000000000e+00,0.000000000000000000e+00,0.000000000000000000e+00,0.000000000000000000e+00,0.000000000000000000e+00,0.000000000000000000e+00,0.000000000000000000e+00,0.000000000000000000e+00,0.000000000000000000e+00,0.000000000000000000e+00,0.000000000000000000e+00,0.000000000000000000e+00,0.000000000000000000e+00,0.000000000000000000e+00,0.000000000000000000e+00,0.000000000000000000e+00,0.000000000000000000e+00,0.000000000000000000e+00,0.000000000000000000e+00,0.000000000000000000e+00,0.000000000000000000e+00,0.000000000000000000e+00,0.000000000000000000e+00,0.000000000000000000e+00,0.000000000000000000e+00,0.000000000000000000e+00,0.000000000000000000e+00,0.000000000000000000e+00,0.000000000000000000e+00,0.000000000000000000e+00,0.000000000000000000e+00,0.000000000000000000e+00,0.000000000000000000e+00,0.000000000000000000e+00,0.000000000000000000e+00,0.000000000000000000e+00,0.000000000000000000e+00,0.000000000000000000e+00,0.000000000000000000e+00,0.000000000000000000e+00,0.000000000000000000e+00,0.000000000000000000e+00,0.000000000000000000e+00,0.000000000000000000e+00,0.000000000000000000e+00,0.000000000000000000e+00,0.000000000000000000e+00,0.000000000000000000e+00,0.000000000000000000e+00,0.000000000000000000e+00,0.000000000000000000e+00,0.000000000000000000e+00,0.000000000000000000e+00,0.000000000000000000e+00,0.000000000000000000e+00,0.000000000000000000e+00,0.000000000000000000e+00,0.000000000000000000e+00,0.000000000000000000e+00,0.000000000000000000e+00,0.000000000000000000e+00,0.000000000000000000e+00,0.000000000000000000e+00,0.000000000000000000e+00,0.000000000000000000e+00,0.000000000000000000e+00,0.000000000000000000e+00,0.000000000000000000e+00,0.000000000000000000e+00
